,0,1,2,3,4,5,6,7,8,9,10,11,12,13,14,15,16,17,18,19,20,21,22,23,24,25,26,27,28,29,30,31,32,33,34,35,36,37,38,39,40,41,42,43,44,45,46,47,48,49,50,51,52,53,54,55,56,57,58,59,60,61,62,63
0,-3.3102556818557067,0.05605975811676171,0.5296110149136268,-0.6889388746593419,-0.30201182266046706,0.32075245286935,-0.22027621558961855,-0.08219909615270127,0.0421116887298259,0.06540081808535848,-0.1683333581057552,0.08819417534131123,-0.0862193805227368,-0.17767308692478814,-0.04306309705541776,0.010107147811379714,0.0926578830570544,-0.03937448899953351,-0.03337337771692804,0.06280852409421245,-0.1644305018958697,-0.047898228534101264,0.0280700213436504,-0.08612509929495732,0.07220278700243431,0.01089525560303058,0.09268904172464053,-0.051923516452275935,0.060676904811818234,-0.0010022163612547973,-0.040112911212731035,0.06534106490007775,-0.037731369204920547,-0.014606558484778027,-0.03246336318182426,0.04035434344161988,-0.1308621264371667,0.014489052438104777,-0.0021024944406646123,0.05246653013138957,-0.06260582280444581,-0.1294848271953105,-0.059089659731808214,-0.11654723584038215,0.08365639147487376,0.036381510233142324,-0.030678451963492344,0.03308539880295549,-0.004482225829900464,-0.01702331756712993,-0.045684395863538424,0.00849581047566062,0.09754371579739647,-0.02023117029368765,-0.03721602741545942,-0.10005670178580003,0.01810947167519248,0.0023483868108405,-0.014296401809426504,-0.02837806114996501,0.01080150480206341,-0.06313495633843862,0.02359079774014544,-0.022958182044413723
1,-2.830900790342456,0.35919871104324835,0.2978035285249083,0.145355728710089,0.19475500346098878,-0.18794294818344112,0.34402350479927557,0.14132065097591615,0.0978776102090543,-0.03829247186441772,-0.04212717798886207,-0.16827328449149326,-0.08516510585489377,-0.08487728493988782,0.024321367897422404,0.007836055412489265,-0.02632183150350424,0.12016432054686418,0.007989592104359886,-0.009132364533896788,-0.0037933355189959206,-0.024141628669826228,0.03024785249718286,-0.05543390579893684,0.08524756758000758,0.06725181915537318,0.06415688991658755,0.0019648918505341634,-0.03010701984022368,0.0075270383018098234,-0.02672209033842762,0.028656833258051014,-0.03333148454064429,-0.07213492486029194,0.06052280815448567,-0.008203574913966035,-0.04414692950662636,-0.01866414228168449,-0.0032028655254379176,-0.041264786443192904,-0.127497867188479,-0.06669904162903997,0.02433891694728152,0.016390127222949264,0.03401781406304452,-0.0205734799713859,-0.021943145188763512,-0.06228600405427099,-0.0668100074947392,-0.012811092128483153,-0.026331844990460443,-0.058687240025222125,0.06077100405944682,0.012757505443591676,-0.021407586438474183,0.034006902601645156,0.02808614019867722,-0.03988578571788886,0.0829711039529507,0.007050756801557157,-0.07354508829675309,0.028859964255979472,0.022578462762095148,0.02824893681857111
2,-0.44451858141248696,-2.271635150467661,0.5525787593918327,-0.3726548701271806,-0.2446259553243755,-0.2426980937444116,0.121312136225534,0.06926213673445249,0.2488841806782281,0.3849312708056429,0.5210381825601356,-0.24284280164187227,-0.09748943142423386,0.07053334035961367,0.1642527560149336,0.4158426051847181,0.025017024361721187,0.12459688196377182,0.22182439985158078,0.43496729726014455,0.22368525871064274,0.11270656200804993,0.10720229494577053,-0.0012520748682042838,-0.03486194701333995,-0.15896499137894438,-0.17161286619942548,-0.09742939966179615,-0.009038519645983407,-0.16463985334939052,0.03521394588977181,-0.016300404766952173,0.055749906777098866,0.06909324453771809,0.06028626679325116,-0.014097869337175275,0.02351448027628216,0.04103525946661609,0.013600161847088028,-0.04911138762598182,-0.08116317843727583,0.08106906883588284,0.004550810619767631,-0.14375130451681908,0.02197692093380454,-0.006668311063977444,0.06960044639948676,0.08863990132628631,0.08177231460226748,0.012214737908502365,-0.025793707606405314,0.11637199783329905,-0.047546456592427414,0.10561046552978814,-0.031626286348205114,0.032533942808088495,-0.03953279487879149,0.06631738339347872,-0.06039764926080299,0.016830917380829348,-0.03852232479993417,-0.11223873615342612,0.032547756204283275,0.05813262160949473
3,-4.293434851610954,-0.8374142994247188,-0.029160505312676346,0.07541876714809435,0.3257582337035388,-0.15914400378460322,-0.41027340393396405,-0.15737444500739073,-0.016852694728057567,-0.281306287788815,0.052843122839902015,-0.01803045028693389,0.02076797882697396,-0.053546635779658014,0.12582388665345853,-0.057694802834231736,-0.03243736309594417,-0.07474787544821808,0.06506132366599324,-0.06581855082895552,-0.010848310895490765,-0.0893426843007894,0.006637676214220286,0.07261193665135729,-0.011947481915140364,-0.05869404213903425,-0.07569946257349205,0.017761340455786152,0.09237731102504405,0.015820917862060326,-0.19267658557059553,0.1053201744912068,0.053244825451986354,0.044430093963089896,0.022417998908138958,0.021250363655914453,0.0184830478897132,0.037178396230987,-0.02963879794804471,-0.01390654848369947,0.15376679257613793,-0.09807499630915141,-0.053510203302085314,-0.0401696976918057,-0.041348281618286784,-0.03573425364281479,0.01830246721133853,-0.08720285614349094,-0.12001317235771834,-0.1095045186665599,0.047370858739545496,-0.06423625322556507,-0.07849592738342565,0.06296495519146858,-0.004103396342130937,-0.0051000855682385385,0.012230007998157653,0.016807598555635652,0.08998085766212109,0.03715115996426022,0.10746540869966702,0.023810543887890095,-0.052085607462826713,-0.0233470198348491
4,-4.313575920680335,-0.8229747678209233,0.05086151987761514,-0.2609979747740272,0.2929208182811029,0.16834703611820448,0.23341201249049662,-0.1611723539400479,0.2381572232250003,0.3103243705103073,-0.2698364570090501,0.02385877168895198,0.07553463709819642,-0.01290808825719713,0.17481942319868224,-0.13925499020515886,0.11899136660409025,-0.05824903426658658,-0.15002888162555808,-0.12170046804944053,0.1185030773091473,-0.12009549765257597,0.10387847465288458,-0.047231681935895074,-0.0099907363640624,0.03871543122964327,0.14382021499835246,0.031483447633626246,-0.08955623140249819,-0.05408295921079199,-0.003047330721904562,0.12594584390512154,0.124731420584161,-0.0013055965395092771,0.0015357317464873184,-0.07548894746142563,-0.08789209084500751,-0.10895564804603744,0.02808198443977829,0.09008696798780232,-0.11314996626866854,-0.017124100684293122,0.05171099132843597,0.006402126770239947,0.06703935715742684,0.045837346075704444,-0.08269878573596398,0.07762645424587725,0.09277761154041135,0.08683153105447726,-0.016584562526358693,-0.014209672166951529,0.023412442384025928,0.02838958180904076,-0.10016292841738672,-0.032783487020166285,0.0166766939901083,0.028514171030707705,-0.13472927323542053,-0.05351131955388011,-0.04957952411809443,0.06499512071810543,-0.03695647243567128,0.0031906924140856475
5,-3.7756580064467355,-0.514080057992165,0.48376789006472987,-0.04019889643144453,-0.3660933073281643,0.11355498483863136,-0.24972597520103118,-0.18810270221230033,-0.05176436207566322,0.027089343337677596,0.028292570197041695,-0.17022884936609445,-0.043206088354926495,-0.018267865341855438,0.038435212566113916,0.08247184319035854,-0.039266290324773474,0.004228245323511878,-0.023327293221015923,0.0036904442293641195,0.0009752547888040989,-0.06953037398215567,-0.0015791506325509709,0.04537963945849952,0.08559659963913308,-0.08743017903547672,-0.018624844746632285,0.013667886771788259,0.09814801186773964,0.037740496287308516,-0.06580980915949261,0.05223628316510478,-0.002033902059661923,-0.03155883682327037,-0.1043145016510821,-0.0042692895068236385,-0.013536608007158694,-0.06192330345685192,-0.014751819911160882,-0.022596486824396928,-0.05698382556059852,-0.0023825109344603485,0.052291283384278485,0.004677303688464142,0.049684901955110855,0.04094932311549532,0.033177164177901994,-0.05977559605463556,-0.018833961068910783,-0.0831809416385521,0.05438945146482779,0.07176196421477089,-0.005891777830076733,0.11891778300193105,0.039363882641787126,-0.0016661268207051449,0.0963263832669219,-0.04345814781074415,-0.0034772630673035438,0.031044890499316045,0.011501954957259183,0.08292224750269754,-0.013396051895711381,-0.033739706890869706
6,-5.022735181681924,-0.6287327556319721,0.18161046563898664,-0.12174304149340569,0.05607113413798586,0.02728140383020338,-0.037209303057459404,-0.07098804220098588,0.07798156126342083,-0.18996778827720634,0.0005493736258538544,-0.0018309101766509788,-0.10297796472649866,-0.05772844610205595,-0.036691655313809156,0.034739480045821,-0.008581609824141644,0.025394477748025817,-0.008310282731529192,0.0617321128842071,0.03203488692790739,0.11356967719801453,0.020103332293693665,0.09447731612554752,-0.14358289384191014,0.062336902527358996,0.08194795946095997,-0.013626210497681698,0.04979666395839837,0.0993646498240976,0.042248297496275185,-0.05282124540777225,0.02728623056650705,0.0405281760916432,0.02809247026397279,-0.010751768993615615,-0.07517042263943721,-0.1637630212488334,0.06877288765250347,-0.012309670928431327,-0.07538256351855016,-0.020698141341540553,0.06759620662057551,-0.09375659741847968,0.02798466196626748,-0.07777066385505059,-0.0031812391311798003,0.008979474647141881,0.021056627199375264,-0.09165374767240739,0.03404428928543105,-0.15456803795717808,-0.012760973991752323,0.09162153407452461,0.010056302734437918,-0.0036222302989057657,0.031350625240171515,-0.04324602599323799,-0.014312645744318057,-0.006833460987196148,0.09108647074185829,0.015115394079548627,0.09758475881874401,0.02719504337662152
7,-3.614776946431108,0.042821164679522766,0.1496653743037439,0.35166366505675706,0.185748443808037,-0.09871680974050838,0.18935080165057122,0.1932593109035092,0.044572226072648,0.08507123769191713,-0.04410941871556371,-0.09655313834558346,-0.05916991809629733,0.022377524151343694,0.08005212318139851,0.05071480316633661,-0.05451468655412691,-0.09530975312359571,0.024863456987759526,0.014954366648222974,0.04113270107067847,-0.01115520766019633,0.09774165327817708,0.10163474893387421,-0.06384965528726158,-0.11907352197469993,0.010431987277750198,-0.05633683439981501,-0.019576144639728045,-0.11516821967449462,0.1452014345127142,-0.019361009665532853,0.004331162778360504,0.07347271851681754,0.07851938511239104,-0.048833714080341234,-0.15608978395534084,0.008033303980147536,0.18126443165946932,0.01516315070967615,-0.028987978283458456,-0.0217749895481602,0.04099967776201456,0.01694514762802057,-0.009327450905988782,0.053517071813272955,-0.007805581080835694,-0.03595311262532383,0.12963670996947346,-0.07511466471752286,-0.058886402725075955,0.018171299606908865,0.04754421007079412,-0.02873094913578421,0.037397665410713286,0.004879640865691876,0.05743142884377196,0.0053873674734072514,0.0747103647507253,0.0644765592291896,0.07779629689185744,-0.043656199878855,-0.031015310809183624,-0.06521646745389206
8,-4.376448135270749,0.7579856313327904,-0.07805147890101709,0.698171854261855,0.4268212720023639,0.06468112675398288,-0.04182966635771383,0.044868870431602086,0.018579788487108416,-0.02241443915358692,0.1297665925638689,-0.017698224346003474,0.05183177661678271,-0.009875541323829739,0.01890973612703746,-0.036033542982364955,-0.11687738482313165,-0.0923701321984375,-0.09476937700269224,0.03725938898624688,-0.0430764058954277,-0.03934495629177465,0.01917587754712871,0.027569517600095288,-0.027472360640827583,-0.07874909457078952,0.07950314250944387,-0.04824633536845256,0.07932415854838026,-0.0236143476770544,0.019973068616005563,0.0713902028013875,0.030324838540230076,0.03759787451208038,0.010288353383994716,0.07340164084998736,-0.010228279276528772,-0.027618319531657592,0.11514338900173421,0.0638319929873346,0.008338840459881114,-0.12134259234689704,0.0859162580911815,0.08333972309030191,-0.025848158342949658,-0.046268182384167626,0.014289521766049572,-0.027052281337767613,0.009754436919973762,-0.09802502201371163,0.031104918975457328,-0.06320161258966499,3.6831873980961075e-05,-0.07311977009883805,0.012431662558893181,-0.007767340996285206,-0.04494113132510402,-0.0299127184431977,0.05832971660512798,-0.057984455619028014,0.010404437974096162,-0.01393770324577837,1.156722980848378e-05,0.022121480532936225
9,-5.086067476214202,-0.06175055579371312,-0.24692332623054317,0.048124778836546506,-0.10917919110032197,0.004421789633594304,0.024735657805366077,0.14533732933944685,0.10542170239190057,-0.05932749893515284,0.18586598901324833,-0.028384408543245896,0.08646500750415377,0.01988092396204241,0.0669121284633905,0.07574407254173157,-0.19861876257338812,0.14343613179614997,0.08385984046342819,0.31379990535719104,-0.1275944385615697,-0.02989711143260825,-0.022846024045683488,0.032289187469337455,0.12246231697968206,-0.09032095702593114,0.029592640382995285,0.06561025492950852,0.03806795190098246,-0.0404591043331968,-0.033479760942173586,-0.04913414691565751,0.13851523235530536,-0.07596891424886455,0.053441000112236584,-0.10991375438411433,-0.1178994606312948,0.07419000209180455,0.028867380614491366,-0.03681835762938546,0.009343025621249071,-0.016363188344347693,-0.0004611561301783856,0.06881209032291778,0.039997489241835694,-0.03064452296191516,0.12627363160195607,0.02695088854819498,-0.002369579112365723,0.004930459790491448,0.01411207616545679,0.05977138695075969,-0.02068494596719466,0.09712638422217915,0.020838549087580153,-0.014432650117725524,0.0014182810627341178,-0.06664196346558213,-0.0571284544048881,-0.056067616489636984,-0.06226000397866993,-0.004037362154434133,0.04521759008867889,-0.03269752255440576
10,-4.714712518608257,-0.9854017505917299,0.040760814298076715,-0.028009507743414326,0.11025996249490537,0.06890054764471716,-0.17628609058114308,0.032088658143701085,-0.016366647233763708,-0.19616948359591715,-0.1135417994587706,0.10840117854795185,-0.11566332007387449,-0.054921359206547955,-0.10827465246604545,-0.050617846873179065,0.12064026325479771,0.039235867446099464,0.01235685343559473,0.07804683436320127,-0.03664829631189155,-0.06396594091199906,-0.047990584392757336,0.010108955297194522,-0.03287588087899137,-0.09619910261296878,0.13494121338397622,0.030174796380267793,-0.014788867635963524,0.07044511222951004,-0.10249611075648378,-0.14041900244649377,-0.014709801588148302,-0.052906820260589724,-0.017247880386644668,0.03581258146329026,0.1386692011664632,-0.02942449859367848,-0.10562523907724375,0.013413499771454781,-0.03283226243894577,-0.05133767697362308,0.004779523900831918,0.03181132937421936,-0.02102638177968246,0.02921079986600299,-0.06789712979737934,-0.07447592610335929,0.057229782114955,0.03092122677128668,0.02967077924191317,-0.02369159742476328,0.04615006312255028,0.012269355613266421,-0.05606566635450324,-0.025692542154387366,-0.08480870574647588,-0.06511417797559828,-0.033892638744713405,-0.15290788815840112,-0.05107875484834567,0.01574655224432593,0.039065782378893694,-0.009287227602090484
11,-4.534966292648867,-0.30413003097354735,0.3315523222769092,-0.26081511907811417,-0.0843701996384947,0.3812078448844019,-0.1350414479441646,-0.06171241232816728,0.05324862163560835,-0.20292527948596623,0.007177469546729885,0.07508789385091848,-0.15181774505411091,-0.13139669031160844,0.03961672268070362,-0.13529300086102744,-0.012728361617771659,-0.10305444588218236,0.05864343916178723,0.1077467420870271,0.15689903682823292,0.04155757240975718,0.07444263010830951,0.04377982936856074,-0.16710358776131734,0.23650051915393086,-0.1547656952334197,-0.12800762499125215,-0.019184255510725785,-0.1197807073750823,0.22746535642218027,-0.03012690104916273,0.035716675138419265,-0.03967347616248369,-0.15651947565962487,-0.13559871020254952,-0.03183189514891474,-0.11559510483922456,-0.003798407506817997,0.09230074943181633,-0.021307812915362944,-0.05304048693419439,-0.06172666772174332,-0.11894334118657635,-0.06645977780047593,-0.024865275091208262,0.11725733950020828,0.004692201600534917,-0.027775627101915862,-0.035198892493779735,-0.017527795522466645,-0.08621910184625055,0.030049996675855842,0.06777483895744944,-0.1443137326198864,0.1536461075812496,-0.09089400714179459,0.06906368034271175,-0.03195008931207642,0.0018804106505638126,-0.060184986390872094,0.08204198425405734,-0.015234437097210252,0.014129718080380762
12,-4.426802561375032,-0.4673989179248924,0.2484195387177933,0.23646948058479608,0.32826835760557777,0.07588331604135982,-0.08963615034203934,-0.12192850711793969,-0.01664164106032729,-0.03065491771951093,-0.12817445432780747,-0.10998632147793995,-0.027499551332705253,0.11868163218148045,0.1136499458187673,0.24405257512936643,0.14385151721959913,0.2522552919549465,-0.06714628938077248,0.18569087458209121,0.15281519010920866,0.0920473351004713,0.1991970794196947,0.08597544713748763,-0.1812052190146953,0.015584615467173964,0.13856460274673763,-0.031540403427862566,0.02636659750700123,0.1418378249323628,0.10138805084962951,-0.08568256478499704,-0.08588133057312321,0.0035232887722370537,-0.06279773909979205,0.1045464543770422,-0.04888405034190489,-0.08563202209913524,0.08104769023778106,0.12407894126142016,0.050226464542597125,-0.037754892650835245,-0.003994029878163705,0.007845658603873231,-0.0396351806259585,-0.07744435702206914,-0.019716871868151582,-0.07112384438684517,0.10159533135658044,-0.046164404339651174,0.007789186792259514,-0.08018651860292492,0.02788122627171456,-0.07734537121498616,0.017082174884681025,-0.05983358139932459,0.021781870601015964,0.0129071788537386,-0.08899625740569815,-0.0519111723163293,0.037777626195812236,-0.026952040280074138,-0.003373556536006559,-0.06574810325064298
13,-5.0919779040891715,-0.09425799020389934,-0.09169157847228007,0.035429899526311266,-0.2234981127568146,0.2211542217809841,-0.2435019884404051,0.012818937623046072,-0.042307164355310414,0.08187345312494826,0.10239660311793186,-0.10337542275434133,-0.01659033766996875,0.12757275997960035,0.10304695684357132,0.1899003110084698,0.051842756284595996,0.022105401906025626,0.17118847637283305,0.04971984458484895,0.1495315732594879,-0.01620292020446366,0.014343167256845594,0.03239570219106693,-0.07947874411169786,0.08924164144869315,0.033983683001479345,-0.03520163793808107,-0.04690305686550215,0.06167618074998111,0.01835279841263851,0.005530387483195717,0.143265259238662,-0.05029999631194034,0.053309941416993314,-0.043479773433836966,-0.019031726170382485,-0.001022907354016457,-0.03663991433440298,-0.07268612092993063,0.08073016745664044,-0.062324189488843836,-0.017204567826915696,-0.009638897244657756,-0.00437168836514347,-0.027527692345405225,0.05396863290067555,0.007984727153778973,0.03469676738087055,0.07783270198739346,-0.02586316782582236,-0.02637036344330007,0.020153864861065005,-0.0042756851954295445,0.04651399695797747,-0.0492537417938046,0.013670396931021522,0.012744705416670799,0.11048302238809454,-0.03543676467263021,0.045494633424109074,0.004143145574947079,-0.009473059560589935,-0.012136875967969602
14,-3.9359803405274207,0.19191133397847082,-0.23269744779545232,0.17180425080912393,0.7341722220616309,-0.06355906329048698,-0.1389369268454347,-0.1790680384136597,0.2620510258893346,-0.1578019081116879,-0.676686764070018,-0.21976164533604992,-0.14005418059128022,-0.004250285147566845,0.10977717336879854,-0.01740941486974078,0.08200700551681431,-0.3396054128635778,0.05583618725444243,-0.21497643460277463,0.1944292883068238,0.0014875459372169493,0.12300211304473799,0.19686127898679967,-0.24191221026447626,0.2536179439764954,0.22467175735947414,-0.12060815213552914,-0.053905591826739256,-0.163064314834318,0.4619891809122293,0.1872217856159275,0.3286274178389335,-0.12059237582982028,0.26308596827138425,-0.021911492525729524,-0.1485813184491825,-0.08901907555284802,0.43025465530889295,0.11724876932335732,-0.09074149575682246,0.008952512416704906,0.2378876673565264,0.15040810195731316,0.008264206077211097,-0.045335604097275085,0.04120067873095114,0.28589492103124003,0.1686207406605545,-0.03190625474228236,0.051283354258879255,-0.033537096403566155,0.07282146096567195,0.0484458650740686,-0.06082695356644194,0.017536115258232194,0.06823290631724668,0.04784254764956123,0.07590382447051976,-0.006430880462901007,-0.059381743898896396,-0.01830991359977638,-0.05374376342419533,0.005322448378798536
15,-4.365313171384001,-0.6649817632415176,0.1916858720707918,-0.0036606193932536,-0.13596992661525922,-0.19797384065727341,-0.08038777620806795,0.057498936450549785,0.2486791997227064,-0.3508019715669497,-0.022298551186763698,-0.18965100973518534,-0.07705118428178333,-0.12107864038122945,0.16132945999817347,0.15639947454243225,0.0250947016166591,-0.17260537941185067,0.10488812653444564,0.08707665682640808,-0.09168305417810578,0.14425218203112355,-0.07744264404326813,0.0818697617657233,-0.08173811147228098,-0.20257365838524763,-0.04796099406949414,-0.1654136110465487,-0.0032184278426958344,0.09304085352757732,0.040278026061614736,-0.029263805996565213,-0.05887238982270149,-0.05972212519744475,0.05490995926006884,-0.10884918537585497,-0.052167395653177795,0.05444605713690945,0.16530404419099953,-0.1045888569375397,0.0842794897381965,0.19730945358307292,-0.09855526893937076,-0.03779441849887963,-0.056546050419376374,-0.2572624951689335,0.042887641584412675,0.11806267817671058,-0.07776162349402595,0.028046226633064004,0.11033407759602946,0.06826660936880147,0.017941415785271128,-0.11287629245965439,0.0850143522899207,-0.00558028591283107,0.001160734189420047,-0.015151518511724662,0.046746755079950464,-0.035365524933939345,0.08111835034193518,-0.06886169481450614,0.08375577225450928,-0.09705065737589287
16,-2.291012815263487,0.6381832608744228,0.7235204715981592,0.26439576071231696,0.549563892853733,0.4576213479926442,-0.32009600722982084,0.11180170601032084,-0.3745508686647323,0.08972482161871781,-0.2029843651440105,0.30091211872049384,-0.09091696303256433,-0.2921120923330578,0.08466672479487033,0.1470763162466178,0.26753937606112904,-0.2574791065023063,-0.17452104884058167,-0.40453049881582354,-0.3371252893806663,0.012831368873530037,-0.214744766384071,0.03684582899437599,-0.11980430235655568,0.34951612059815174,0.498756501620372,-0.22207094079903517,-0.02036246154977456,0.23321970744765622,-0.4045559326713637,0.12050339342385602,-0.10162533993787709,-0.11557192677884458,0.4146131298750043,0.13186284945772866,0.2029734009171027,-0.24167118588914677,0.18635028436853418,0.20519158254588865,-0.036550938578652825,-0.0469328343270925,0.05818711109069234,-0.02737879244182727,-0.26036735665806593,0.14070053099240135,-0.2730963328137496,0.2657022415306863,0.07583796325751045,0.059639914471087754,-0.0290988090643851,0.32816668803748006,-0.05342318982246875,0.06469243280252154,-0.07932869249211288,0.009604703654388673,-0.046415646436330976,-0.05351061148738582,-0.0366331659973102,0.007547170547432194,-0.07323610776019857,0.030815964425924644,0.015908075113073575,-0.028946266502531307
17,-3.865391941471452,0.3838591281988576,0.7322917651982987,-0.3937394537911915,-0.35201000741000144,-0.28065458060204534,0.16902386369922584,0.007074155543601302,0.041284123262282375,0.07569226237203025,0.11041394779760572,0.01856952410059239,0.035491047909891285,-0.11631081088947624,-0.16106074084450736,-0.11662828002195763,0.15453050198848522,0.4436127576886353,-0.10843591715018705,-0.11160024513692576,-0.2796127165695479,-0.18666285286050593,-0.04185276099922216,-0.20584009419916205,0.15712858810144956,0.18708416753428747,0.20721819451520673,-0.004241898091526911,0.19553486463252892,-0.07486004576602595,-0.2234190236516672,-0.07583122182617116,-0.2899579006728417,-0.058439812334640844,-0.13827987326869043,-0.05735224959134133,0.07298914856744947,-0.003938283712175474,0.0009212429652403553,0.13596776374577949,-0.14746417447487292,-0.007409621864720308,-0.09915963468919546,0.1847646814803827,-0.0630225583792816,-0.00453563749723429,-0.08012892432258875,-0.048414071932579184,0.047240840124871016,-0.031088409283698992,-0.16620911437823607,0.0787902013404426,-0.019128820561832502,0.02017638412778584,-0.03985074568419266,-0.02015444506518773,0.07639276368855678,-0.022224583922199975,-0.02053501487941677,-0.10382653077646323,-0.009424848893678471,-0.006224872860782701,-0.001176827644745171,-0.04014454907441816
18,-1.6005681176511366,-0.4991366548065911,0.14285792723268492,-0.16227411009728512,0.8857741619139922,-0.5245528105034496,0.3486165132156937,-0.36183098194808955,0.486210343852409,-0.22565964736280753,0.07044604996325818,0.05176088709944409,-0.12415700757806958,-0.33252782491880745,0.017337460132098383,-0.20243207827120452,0.2529805541775326,0.49857868118644344,-0.2180862968888284,0.18584912873584056,0.22919418358780963,0.17038434665230798,0.07131165781691245,0.14017301669900453,-0.15764238151319157,0.46178301710056663,0.1520019300401403,-0.34406351283893716,-0.09805202088222917,-0.13998271395213835,0.26485475490814125,0.07011004548854906,0.12937109429203392,0.13540729757640396,-0.1056858991696397,-0.10698236719566631,-0.014291049458925873,0.05011947259216341,0.12203661424726794,0.012675801994354512,-0.11169216183615822,0.0854420534400564,-0.07467326555147488,0.025232462372581723,-0.13554439712559851,-0.029240547204854958,-0.0919203743186345,-0.0022398217454327094,-0.007760471255732388,-0.007446855737481745,-0.14785974088169124,-0.10092379702548505,-0.01208760788250961,-0.06547416059320764,0.000737996130366461,0.06262635181842408,-0.04226918207349019,-0.04434457133977461,0.055832955669627926,-0.06067104434457979,0.12633004672391795,-0.04910748303149884,-0.032504151602449946,-0.08826142661824328
19,-4.534060966105963,0.7654793109876037,-0.5494943016400982,0.8791270203294912,0.6869289192406066,0.018146159180078506,0.2883284837616898,0.05192844667211794,0.17374816606932547,-0.12277644293710037,0.12328089887438047,0.16637254118962094,-0.09774549698920411,-0.06926721682848483,-0.0803362439964877,-0.1167686322015675,0.01769179529415463,0.08910783912830238,-0.08509311957664918,-0.16169303798077148,-0.1258587337479584,0.023812123879255905,-0.06848560206223236,-0.08127128098597626,-0.03223497237561734,-0.058973551442937956,0.04997072686609072,0.054113646120333384,0.01972937900577259,0.03483112026817083,0.021919803444747175,-0.0677576444751319,0.015257764325221076,0.031173142253690743,-0.10063457739517176,0.00040621052537309047,-0.010761454869048084,0.03577252751203965,0.035824181388352264,0.02271884031412969,0.030472312593074452,-0.01607407574025539,0.014146978971300015,0.023864163823894138,-0.02280786346123496,-0.03129862101745111,0.04579094565779828,-0.055239948923799194,0.08782716955818498,-0.033264343473305556,0.0054734298947480345,-0.039058300496787414,-0.03313602700958869,-0.03760976131270146,-0.014084523246289931,-0.03345872966025643,0.019821044907488917,0.025629269502568126,-0.04941443954579221,0.004915551713062547,-0.025801857290157548,-0.024666604687763823,-0.04814766233851692,0.03790758238926551
20,1.6035834576021737,2.430489413636708,1.6278092223989005,0.8847802835155162,0.7461791513392615,-0.38043258995435925,0.3122782220504643,0.4148306569578838,-0.2921769490580837,-0.2685591730815649,0.11327958499232094,-0.003286540194618912,-0.04325740734345471,-0.12898652518741574,-0.07956444886565638,-0.06370352113686706,0.05109546184148608,0.22649678584737024,-0.022486617178344537,-0.08062020859535292,-0.030939543485428725,-0.04361359111952936,-0.13084126449911007,-0.15756095984676485,0.072695329455279,0.01847564630917519,0.15488353920318748,-0.14300475779632785,0.1594070201858611,0.05462839577926743,-0.048068317996250554,0.07269118275388328,-0.02264146259496776,-0.09533610383880292,-0.014059238382419133,0.04988125383268577,0.06385413741476312,-0.013783217345756419,-0.1586157924745796,0.019043467042872454,0.03629408125366083,0.010852050200930188,-0.15755571838189283,-0.032882916815457214,-0.058798314845255634,-0.0010461148058190997,-0.04370979846452326,-0.06933881281644132,-0.042796485467401495,0.015616091055328185,-0.13558894360553822,-0.0020518096911179046,-0.032758488205127854,-0.11401765316077876,0.07694181445768435,0.010585855093699368,0.00016954135740931934,0.015369708599322502,-0.028388779425624223,-0.039054811982834184,-0.06027248723627238,-0.059975375727108315,0.05357486603222158,0.06717512775947654
21,-5.006829315357049,-0.6715708893963589,0.0012172867590113975,0.07789821379661863,-0.07964490831915788,0.2524792770666287,-0.08355315499487068,-0.3154679627700021,-0.07160522312865022,0.18122585805212865,-0.1516500938893331,-0.1374656810451412,0.09936607361436596,0.07727031298902858,0.09120481027132149,0.06789108550995482,0.06226388135662077,-0.09445404679062074,0.005038402108078392,-0.09631186264530528,0.12265598989824096,0.0029156630479824403,0.09810558199847391,0.1258490195916052,-0.06880358171636415,0.16758324541278682,-0.030179737620311967,-0.07485349849388781,0.037804658708442455,-0.0312610073097154,0.15821381141288143,0.15247481455235923,0.15085064150323507,0.07947359100023801,0.2294767258701931,-0.025005641423273144,-0.13312118578623608,-0.10328668929561678,-0.016279419970865693,0.12221522403242907,0.13221817103159017,0.013760881498547645,0.02570878015130243,-0.07437806217973884,-0.04670552796001337,0.00844833677514585,-0.01628389576867375,0.07875945636993838,0.011300292708747562,0.031229925768075758,0.013314469382763532,-0.03836058655450587,0.02211418694757205,0.028106330736133077,-0.016329297021715688,0.03252837444369906,-0.07736380827047833,-0.014770335750373037,0.02417949735603185,-0.04253776686297335,0.024854944274565388,0.006731941024108726,-0.018009259538082866,-0.04963811036312798
22,-4.670397323968491,-1.1510601962386744,-0.010197942436804242,-0.08518299923759674,0.21228266123969822,0.013431000919399059,-0.14806003298328052,-0.013464476828647466,0.2589001932535385,0.017356551291548915,-0.17984076966317294,-0.025243573894236943,0.04210970142793817,-0.051218155629844914,0.09938102980431204,-0.05934302931553083,-0.024261888124645154,-0.051907459909238084,0.02821883225636731,-0.1296287017392174,0.13394813471364106,-0.0794221234770585,0.05492439041631343,-0.09140378330932188,-0.008964828569063431,-0.04703337887019854,0.13843869815612034,-0.007743053538152422,0.047389080796703405,-0.09566312289358372,0.05130084994218152,0.06225631711308911,0.10538186731174916,-0.013671187096870588,0.03729278647390116,0.017806259866102563,-0.11700711361927356,-0.12775210352956118,0.019556669875009914,0.040821374729506976,0.0041546590638169645,0.030479600124091247,0.05054040826380438,-0.05430482726513287,0.07469166173893553,-0.060360873753078956,-0.026112147594839104,0.08563233348705364,-0.024294743288039412,0.11419107609414367,-0.009719408276085986,-0.0030386815503801266,0.053030420712817494,0.005233805923115013,-0.13543750761241197,-0.05341323646354813,0.009839202328950811,0.041407642119927215,0.0681753109429691,-0.003141960946765244,-0.0029622831145577257,0.004231562620784894,-0.023207198204743044,-0.07779892118824117
23,2.4313305010313933,-3.697979877199117,-0.8440199557706304,1.8544270806687713,0.9324653352149918,0.2296844051386802,-0.8181241301642643,2.8737640674739517,1.0586878591432616,-2.8942195083558206,-0.6405722110142896,0.3353904924472283,-0.4562458930713715,-0.6515280991387274,0.35984889753806104,0.5435457213886612,-0.18587870059203715,-0.2540223102362685,-0.4763453515117477,0.010200399795982286,0.35762336092015085,-0.43566638293596305,-0.18301599181480932,0.020676146338388907,-0.5249500036213074,0.09335075041380624,-0.07216649651665379,0.03381133619336219,0.4074356851419234,0.29308337454863387,0.150498934732056,0.40544419799944004,-0.10836794794604886,-0.7256038518022186,-0.063765009238872,-0.21458546871981368,0.1118359352386794,-0.027082065184036417,0.39191983392851987,0.01119911863492708,0.25773740618598384,0.12907363017875817,0.12005120811421671,-0.0020005121440159084,0.24808812789373746,0.0960297362325353,-0.11510097073278369,0.009573152252548863,0.03538606354370563,-0.029540577033432297,-0.014453366409560079,-0.058428756005182075,-0.18984042928029163,0.10693466387066246,0.032979326489034004,-0.003323110010535337,-0.010782784941697182,-0.15960621290189403,0.15401877863693908,-0.05280139589062847,-0.07174797535948586,0.0740922675543058,0.006447435921185972,-0.0757626145071826
24,-2.605349557047228,-2.157408506251725,-0.2915233894201592,0.05148558641214245,0.4237796415473975,0.22015491743203663,0.04670046184594148,0.06620062995010526,0.1195163368817499,-0.3597544756459088,-0.25730668471857243,-0.0426456612091333,-0.1065377463391603,-0.13494985876937168,0.10161356965449468,0.013501987921213177,-0.053602336327818106,-0.15958893135534652,-0.02138579110497928,-0.1137192767148661,0.042785839004218625,0.04839764369876411,0.12290401019493227,0.16884531018186164,-0.14200442309786127,0.10021043874609609,0.03831315617675266,0.08921240762533124,-0.12457927516367545,0.043914275533690636,0.11648911146025118,-0.039046366749251264,-0.008276116583272654,-0.0020014968811691686,0.07496009619187569,0.058804596547238776,0.05374391536116404,-0.07497782814841973,0.11182151711943532,-0.022306885559278556,0.06969400627373062,-0.009757219494313272,-0.008483809725395816,0.043917796642438583,0.02022453658266099,0.0129958279261718,0.0670828963280297,0.013445485794013551,0.028741309525886816,-0.03587339730969381,0.03454287951452777,-0.049521186760984395,-0.022818732281040446,0.057376799397276336,-0.01359274895018274,-0.11250713188262006,-0.046786338905542194,-0.07033721039151007,0.05204394902514683,0.0055352899477114905,-0.03813613165900442,-0.025566223570824907,0.0034286988273122872,0.039618184209286936
25,-4.127147286590572,-1.393589028729039,-0.27169356021818003,-0.5874492139496624,0.7491147815288597,-0.2529427277810101,-0.22237787965281014,-0.30065591207923603,0.7560804811374582,-0.043971931601126724,-0.06908718066861683,-0.21999036560025925,-0.37362183581561753,0.10028624324983335,0.22833786522862115,-0.3868455861901731,0.27506460780954717,-0.005927307500768653,0.20215213253894845,0.1842590994015468,0.02841901152832002,-0.1434875164340083,0.07315398806647078,-0.021552237680812075,-0.019653506055251357,-0.023355676599768848,-0.017335979697017622,-0.10956474073299251,-0.15618305921118966,0.012517455733842376,0.17866432737572518,-0.05592071314501095,0.07911124082126048,-0.09958118532425021,0.04324143409121911,0.07348575178718514,-0.09699722877612578,0.13195102497843328,0.06893172249403223,0.05154693787643433,0.04675947491521223,0.042550770925263624,0.06868204939460751,0.08033049223920391,-0.11031879866876816,0.04516142720475004,0.053242307749513273,0.034225029493960495,0.01080907381846346,-0.017824581155628502,-0.03758362292894804,0.071195411693302,-0.02437946458868712,0.030562797224137607,0.07817215346759604,-0.0381438760324343,0.06595358538360235,-0.1137713713542621,0.017891655094998696,0.06656097591435683,0.0550964251619768,0.051627091025660356,-0.034109915207509126,-0.05300105134917368
26,-0.3049659762333219,-1.1478693963482536,0.13058924070325129,-0.4062868358495245,0.5160869140851319,0.28252459460070484,0.15405331088306407,-0.028751764180055938,-0.16565955522872639,-0.1895264525007693,-0.010801364983049167,-0.042737427663112254,-0.27832325727533525,0.030961302228879512,0.19998375590835218,0.03355499937808986,0.09555279168320745,0.014049617929337802,0.08565195605499434,0.020614595661097523,0.07995105669366193,0.03477032412060722,0.0775106880701037,0.14199664245069119,-0.0745871906271018,-0.013872104041724396,-0.044043240555270896,0.1154064266745589,-0.0958526461725168,0.2091045016687399,0.04387357484284011,-0.04312847159968611,0.006011909641088732,-0.03162415331332983,0.022151105741977862,-0.14156248384930264,-0.016125361475191894,0.05846071918906987,0.03761093848697138,-0.04258146489688619,0.09347090145419693,0.12120748644137884,0.08312726260266932,0.038423598744953914,0.12160649500497184,-0.01433375058516026,-0.08611511820659944,-0.05648315493144192,0.06687296506203065,-0.004423080777705439,-0.06609847273718349,-0.11655527662087925,-0.04918063150392239,0.034095327719798244,-0.1038650767329777,-0.0006908973585854334,0.06551431403337626,-0.09906935499663988,0.09080322585086441,-0.017698472019104655,0.04666117003737902,0.04306039322653751,-0.012961384669732578,-0.004727563823518384
27,-4.116038644972365,-0.3145971680948745,-0.1703223881633645,-0.2599589324284162,0.4883764405630282,-0.31913610957660876,-0.20337678046194863,-0.5406376409659414,0.17931190074351228,-0.12520076921856738,0.39069941020670035,0.32905878396715804,-0.2959663442344131,-0.1905382258890604,0.10436897210568313,-0.14117170389659514,0.15351161870544153,-0.011118504597038633,0.00496333718558479,-0.02202330859775051,-0.017731891278025554,0.07857377574309189,0.05148135243317688,0.16600130426560838,-0.2174197166796236,-0.01869686613662202,-0.0038051044701620626,0.08090694337018876,-0.06235222654378293,0.05809703188470868,0.008914858472658153,-0.1340196243216547,-0.1935470730747718,0.10593382550752162,0.08453641158498913,0.22056985588457245,0.009666293082416235,-0.012188933720755113,0.09211461654330685,0.06516996355932672,0.11430139922877484,-0.05696524203375684,0.06309163296390206,0.016725630090289687,-0.1167963141426776,0.13415231606992495,-0.04682770181996121,0.06106736474038995,0.037239052593816074,-0.01806993880809604,0.08149803010848454,0.01796688792700977,-0.01855541905248021,-0.08535800723771943,0.06395066564664781,0.0006927368966229379,-0.03077386345433668,-0.046257692032637986,0.08337783583308747,-0.009643645176498244,-0.10592845739500713,0.011625000837643597,0.08823445914523076,-0.07910473921489859
28,-1.7936187593632749,-0.7543527188710013,0.9227470324738156,0.026430248206701673,-0.17048372688444843,0.3401246365545057,0.05981474927901012,-0.1946662848005902,-0.18093362983301944,-0.13195051218517512,0.07585230060184647,-0.0056069544915400005,0.08893358544391927,0.02276286290828369,-0.05031377556134987,-0.05781374019602503,-0.10089213718071016,-0.11060348954980116,0.01221898044446699,-0.11670118717207471,0.21222290266071278,-0.012775788552060165,0.1888814111880528,-0.07150595328940097,-0.2424338361544205,0.20026269211363104,0.07905163368511271,-0.038612009795427664,0.08890078861749882,-0.13250440504626432,-0.0027430896437669913,0.07036759166270229,-0.13148467823325105,-0.03857595353299478,-0.020127655572583066,-0.15542906592360234,-0.08991145473445333,-0.17849926655567083,0.00886089726033591,0.04351325115781746,0.044252433571559564,-0.06432633800674815,0.04651705346304235,-0.00874203550894726,0.02185499717367403,-0.030226539666321765,-0.1085053821252645,-0.0017977756645270538,0.10325816951315184,0.10152827708581519,-0.044974974679015796,0.04172134641299024,-0.03754851483336359,0.036238596236670854,-0.06549044826938376,-0.041229418904723786,0.06164385530814457,-0.07178103196128766,-0.0026429729095170645,0.060110092335006644,-0.055710348317975215,0.06731480663563988,0.12965939727722395,-0.019664643035028954
29,4.706475701908422,5.885476277668677,0.8719655121573745,5.399512847888732,3.545440118077451,-2.188198471371791,0.2765219037825172,0.16524041343411472,-1.1159248481859518,-0.7077858283889017,0.02723263765476415,0.5307097713449294,-0.3505316537841524,-0.30629020080333047,-0.4656305636731868,0.19713253111331033,0.1285022217295506,0.34108443721327497,-0.34551467622283677,0.06878314404967192,-0.0634999757939991,0.12306789858510311,0.07076526689286226,-0.1274230236709357,-0.0648378264209484,-0.40498429070351777,-0.1430833316814508,-0.06298113066381658,-0.03185637661428568,0.06277391192108046,-0.12918892352935468,-0.15441034691778785,0.00014296477065573208,0.043297699092869575,0.03594680354382183,0.035836133858107536,-0.022198978587785124,0.07863198451969503,0.04083963506488199,0.2189368183895782,-0.06297119808885718,0.005127183851895753,0.06029674779615894,-0.0004890244239438158,0.15077506679877398,-0.009252423307307628,0.021950107890207748,-0.07874447005865655,0.07275252506579073,-0.018343011383007493,0.09288231541498516,-0.018114437302257647,-0.010305735858287444,0.007223693501386479,-0.06023977770925886,-0.09157680680217564,0.09182550558391607,0.08808693075020159,-0.1734224225362898,-0.1045729561328223,-0.01956758773059443,-0.04716853709815278,-0.017227375398823075,0.017118951093454574
30,-1.0375309218787734,1.0379515365757952,-0.9155084874085795,1.3208847758027331,1.6247266286009017,0.020613874134577093,-0.2853391146231267,0.09694075674220509,0.6218902628470959,-0.7176269000099905,0.6221095232389304,0.5010564508508815,0.3202697709720616,-0.1873716933343987,-0.25564229711826125,0.08787959699687253,0.351297775739856,-0.04606426382008729,0.13981663099170705,-0.321531270426358,0.07873078243253331,0.19164592058937777,-0.11536971655789331,0.13807834217245604,-0.3470163014728894,-0.0513553841260009,-0.22112586004556747,0.07727564653481256,0.0605013571843659,-0.06281494066377216,-0.38360893802910584,0.04596242496057211,-0.3439568551916035,-0.2093873403973627,-0.07225627830866431,-0.023850035097494327,0.11870249134265973,0.11291265775646085,0.0585916278078314,0.0032998084226032766,-0.10730718590269533,0.020515089241952656,-0.14589678610704337,-0.08639730209872495,-0.14339857225809963,0.1326168224215098,0.018625583258718013,-0.055480829354093424,-0.06512932285534578,-0.09504814559714982,0.04464649858949915,0.002588557300339614,0.007444419479124432,0.007331214942836399,-0.003945482689624379,-0.019159610759084428,-0.07979845646922172,-0.0534495710152055,0.01535061586501462,-0.016320493373208865,0.03236090634978063,0.018066617430632866,0.03493140964295022,-0.03483162948151377
31,-3.431236810552277,1.253476225149136,0.8903064093778792,0.9199871143851284,0.8218329708983512,-0.19638365583160103,-0.12135238944531801,0.12470154027230133,-0.23802742378909522,-0.17018978425693862,-0.0027370653362371383,-0.05997374389150534,0.10315930153257881,0.1103629115218814,0.05987137693827609,0.16968732775480155,0.1252942503360578,-0.029048957469356262,-0.022062445964500334,-0.217621467963286,0.11945327118332516,-0.08544773597517967,0.08878940615688831,0.00590352074741913,-0.08013411936507255,0.2789622077558135,0.14297445425830863,-0.094440926507525,0.01901760146976769,-0.007065646871931016,-0.061187235602003884,-0.011266267617965219,-0.18324444878449592,0.08899861138858382,0.07579782375227527,0.0519477472538938,-0.10729010411738572,-0.019606012601681468,0.08278406991817311,-0.06704212059543589,-0.09752410077793192,0.025168309522646936,0.001361328554892363,0.0761283602710636,-0.018080826224386077,0.040339819240555456,-0.06992580836797783,0.06417597111311885,0.10705553201083753,-0.06816179997731232,-0.05624536240708736,-0.01858489165702185,-0.09226303115321949,0.05529550831989735,-0.002049241590049281,-0.024856912232652698,0.029303225981336667,-0.008812725649760775,0.025635161862535796,0.06644951960919208,-0.08913989093944609,-0.02063218040659717,-0.04843088806347316,0.007417327395530488
32,0.4488063354912904,5.039468252438407,1.5311979578591317,2.2198098299621942,2.4406263909669463,-0.9721902900550627,-0.5539697831095278,0.32764385985827904,-1.0735585414717956,-0.6440875307276495,0.3704873506954755,-0.20714440764800374,0.08598068979925774,-0.037025761883802216,0.180987306120748,0.37080521671996153,0.0852872193217133,-0.2901244730587492,-0.054466968140865116,-0.08167421519872636,-0.01875494258107438,-0.06595710015706409,-0.3139422150343679,0.09410458260852372,0.019144396049385854,-0.19093124459484317,0.12214110881899926,-0.06662800745556331,0.10692135113882707,0.0049162044926411895,-0.20719645235364878,-0.2538840530704408,-0.17235745878106878,-0.106995897352262,0.1247330380634792,0.18302352203162278,0.07526218753122017,0.00698035718172347,0.020696523624555943,0.14014032473727675,0.16248550891496893,-0.16090051959731871,-0.09725891930916031,-0.04389576139635783,-0.012270770381470718,0.04608401140292082,-0.031266270614555565,-0.08252155194666168,-0.03798950769505336,-0.003336715453302191,-0.049116008444278506,0.037268867469847373,-0.01748525796089374,-0.10980865716653802,0.08607216278189796,0.07639547661439743,0.03478894397231657,0.029380956177727742,-0.01702689265302789,-0.07017056746140113,0.01646457013009873,0.04653312489770851,0.02166917376064241,0.026540509365152516
33,-1.0249905907215753,-0.0285631675801748,0.15585009265347877,0.1542428193475613,1.2947859707032736,-0.5153966967709498,-0.9777954916274259,-0.33694125962588384,0.859430288209021,-0.9337114516976681,-0.43679384820457273,0.8974599000702793,-1.3193401890174978,-0.7674046521975473,-0.5940484013595785,0.12716434182444203,0.9509776092396933,0.3509499725248879,-0.1747960167832686,0.12241435969766482,-0.044441913065382886,0.16221470829893544,0.29895329227267364,-0.02137563967138959,0.3895256375825224,0.018610940016496578,-0.09424619873076616,-0.275102375272593,0.23042636822768078,0.10614768220703223,-0.017075942031161567,0.03078381009262086,0.12156032667924181,-0.10345579324066723,0.14590207283627962,0.11355459221201385,0.0644019508577417,0.16331411833195597,0.27281374780857576,0.0076068790996052455,0.2164480944490048,-0.06862673581398664,0.11639397775890466,-0.08832394833292029,0.02940717330126697,-0.11622824669753067,-0.024535261507981587,0.27839848782107857,0.1174495813079918,-0.061058656375623195,-0.009737851049567621,-0.15622361770120027,0.009292495226368503,0.07247475635273651,-0.022938585105975795,-0.02206253525730746,0.1453345510814456,0.03924321475522664,-0.015899196219367428,0.025124194342565954,0.0873340319642385,0.04066556221518026,0.10549863825078183,0.0065970102062580345
34,2.6933790250313088,-1.1031297041744808,1.8714317769208562,3.460055180533508,-2.1626312211607615,-0.409035118155024,-1.6651103506053055,1.3919084004266682,0.7544557221254518,1.27052583945321,-1.3091331044367032,1.8109052605550822,0.44838584665741205,0.43998235925292833,-0.6043465490275151,0.20881160705241517,-0.3046917484727063,0.18992130193280182,0.04522618514553647,-0.28594887099421834,0.4969675642869143,0.36492564570238595,0.19009217840609316,0.33352780930619746,0.35168981982246883,0.025523644066361185,-0.062350891739952535,-0.9130498911861006,0.03894816210988095,0.15121940015320037,-0.09830863689254478,0.10891712249960538,0.1745358729374457,0.023040655929670424,0.005469138935455916,0.04374428666108044,0.19641147259093522,-0.08699460254356221,0.10132924887650686,-0.13145738121359457,0.023924718759837184,0.24854430895170185,0.19769235521537976,0.06978787207484047,0.032832513934636716,-0.019275167697106802,0.1870840936846412,0.13966212203085462,0.10281295633788423,-0.01021006653564833,0.22554202521640943,-0.18811841973126256,-0.11568930443489167,0.054616181400816706,0.0980746396918391,0.051581461795983344,0.013095598020637412,0.0697020160578948,0.05021354033339102,-0.09055281624391207,0.02738778725885374,0.12367816965234571,0.04713714204970627,-0.008852901291511475
35,6.353714893396871,3.9321296304213877,2.122055801631384,-1.4166399557852096,1.9572791735322512,-0.5661512857193742,1.2586561149677957,0.6297332899349346,1.4519823936130785,-1.6404707395667655,0.7233450219354282,0.38253644545123283,-0.166140347468465,-0.21916552364006256,-0.5250764099611755,0.14409486398913451,0.529975485214307,-0.30386543817329137,0.14103905047760557,-0.09651871396978501,0.005539395907531199,-0.3040801858510219,0.8010989295419345,0.16519778632156132,-0.13777082636047,0.07547417586736645,-0.011160797765359205,-0.08980403616946711,0.1724996845649681,0.04795812410087788,0.46154821613979685,0.028089379665586306,-0.14967251153115743,0.13677762697435614,-0.2663415416868169,-0.31635465387698525,-0.0955402512778662,0.021767206392530394,0.17405729904510178,0.21041772557768965,-0.19506408435039374,-0.11723850121262477,0.06069638149036753,0.18307273305205304,-0.09785237799462179,-0.07267359453347796,-0.06305787233985054,-0.03442368035092187,-0.15767174991030705,0.07399217528830307,-0.056004347888077344,-0.06268419226381933,-0.038895253560409127,0.05417030899961048,0.15234202828316137,-0.034907591872607044,-0.011595713086696649,-0.14607208310809824,0.10502736340973347,0.12660189331474794,-0.06310434027057733,-0.01804957189410604,-0.011502188883540949,0.006047365411018171
36,7.055491540546832,-3.0358758601463,-0.1292306385703176,-0.7238633469142706,1.6064335445114815,-1.5060467956654227,-1.1471373662092523,-1.3855368877458227,0.5251387116988986,0.6171529490119864,-0.14052495766561013,1.1463271184712756,0.07935371981822482,1.6729911147519123,-0.22403571421161836,1.0502756002647569,0.655514259602086,-0.7544616386743287,-1.0441384607020303,0.48930533701522994,0.107511102855103,0.14678112758549888,-0.15076140796007123,-0.8156289649791191,0.4996195856355755,-0.49954862727446436,-0.20472793407952042,-0.7336489723892698,0.022093202854737662,0.032716707905898444,-0.6107942372564967,0.13690315499795946,0.4188963455065919,0.07567674608324397,0.09149742817204683,0.26083761958294654,-0.2879142446746208,-0.34946377790368643,-0.22595909850586263,-0.14982455915975237,-0.048429315224735446,-0.08164841961938482,-0.0991715013178184,-0.012583953525828393,0.06315316850399086,-0.016713946336410632,-0.01900399188206526,-0.26201425884471796,0.17799874643396774,-0.19732937488345736,-0.20946344518282695,0.18830680580155817,-0.05607764738290117,-0.08110136324081106,0.06169312065279842,0.026005995617368625,-0.050002314594748805,0.08190092451724766,0.01767147991789081,-0.03859630332385968,0.11346673001725549,-0.027677233823070718,-0.03841861299533335,0.008995096346384164
37,15.218650568118594,2.930282547928551,2.89257667210339,-1.1262729077271008,-1.3983635264393774,0.19280201233550176,-0.8362871548447101,-0.9871171127182911,-0.05922651804064735,0.8262341934258205,0.13044894055863004,0.3770867101732057,0.06757464818287089,0.05712379134188431,-0.2949168472360279,-0.06468045856512794,-0.23569224205534064,-0.12604408727073751,-0.299874078419899,0.16289661473829994,-0.011478072657045766,0.10621643506559435,0.09823031675198507,-0.3072717228064483,-0.015467612828113217,-0.11592245981804455,-0.12612971571144546,-0.14905982157122433,0.13978479256039691,0.025863025143354704,-0.08994815981710878,0.051818452619825386,-0.054046348642373766,-0.1744749873988291,-0.024991047354231744,-0.10965093340022791,0.023418460020733684,-0.10555056993255782,-0.11658236413538385,-0.05812798635741188,0.05743880518739105,-0.16425264947657953,-0.12202480846469328,0.012019142114660184,-0.16540080599090368,0.07913459262408123,0.05694281705012049,0.10725691695201701,0.1338027526980218,0.1707961640654541,0.04508566821980127,0.2675785106477414,0.03360442146719367,-0.05476864774676105,-0.10145774065342256,-0.023195740985053597,-0.04236081834335572,-0.030350009310748216,-0.03835577114047739,-0.05649315990053613,0.027656828606248785,-0.07367032612193779,0.16628342914686414,0.002595118721563142
38,11.02624829687564,3.1561820222734616,1.6921224236283796,-0.22875557593860918,0.5321854172538231,0.03262062161239022,0.07508107510930949,-0.30551294152290376,0.05392922436442136,0.5452602958520727,-0.23206159248771321,0.20483634149415025,-0.0918236891207221,0.14321135348247271,-0.167326880548557,0.23751185240705813,0.21807557649401577,0.27767532089015584,-0.2359028353185469,0.02408868873972695,0.04768221833703436,0.016670839821936602,0.012988390765429528,0.16655325718196326,0.15003033413389033,0.05311763116820193,-0.018812366566228384,0.04659563162060837,-0.2279390062621842,0.12663238167072077,-0.3139697105525419,0.06507361192064802,-0.27433715819918697,0.08764631825123459,0.050371066252384813,0.034154011756112344,-0.06443731696560558,-0.004533177009998205,-0.04591332374507211,-0.02853557853878388,0.025267525491379932,-0.18667545896243484,-0.14631811481438145,-0.11247505770298392,-0.05285288816405878,0.007620226036306921,0.07050573643032831,-0.020725322800825497,0.005702109311331153,-0.008036338563731505,-0.1894884675424297,-0.0033717462354603185,0.002745009599236957,-0.1491258432601731,0.12952672204261081,-0.009818641187167076,-0.050193129894946655,-0.049053260373037574,0.013110852479318733,-0.030185195606124354,-0.005913006452855052,0.09849088892329191,0.033914045471372084,-0.12452454448658615
39,0.5239386385200535,1.6944836403096606,1.0641597187513039,-0.7472458468289959,0.5371074515415373,-0.5265321948734063,-0.23314325061747107,0.17543783978250813,-0.020443998516891704,0.1511722196396025,0.1912354382310471,0.13513019509055982,-0.11696337116089402,0.25607396387839443,0.04240848581554074,0.21018159840194733,-0.11405026735510229,0.10162834286365417,0.09212659126532945,-0.10298899980481309,0.2402913078636538,-0.09031191346619523,-0.22881744766314313,0.08225263884396013,0.012358069646979922,0.0015003097845649712,0.10125007741458417,0.1642360483979811,-0.011581722798764292,-0.04927828200379611,-0.04284884327170879,-0.11796421607002716,0.02869570825624761,-0.22561583287998707,0.07881567197460188,0.056121051379760464,0.10233460962452655,-0.22064631584914374,-0.1582632096063129,0.06317273925657876,-0.06247941896253095,0.114889830377947,-0.13751300981417114,-0.0036907335473972173,0.02522438025455028,-0.1669440460840839,-0.018067528314616773,-0.03481675799278238,-0.13992597665572143,0.10624490806175316,-0.06797381030711808,0.047211338530514006,-0.07603839733234953,-0.0036708692839320235,-0.012124933308909847,0.03606454480040309,0.07881093786046235,-0.03506840522747246,-0.021042951414343702,-0.031221042392498847,-0.0242935353310424,0.014768866559574465,-0.00603545016475868,0.02241385802085195
40,-2.518458889131908,1.1710327977471389,-0.6969325966029742,1.2168193388371846,0.09987561226794485,-0.024543029763398075,1.115954822509543,0.28961712434522924,-0.026758835565813342,0.6801388837628326,0.1369984231752623,-0.6268768263103498,-0.34698430606472763,-0.20591638804413126,0.11014521135376014,-0.10420663329488425,0.22339556596672047,-0.1257744865346008,-0.17062859016505527,-0.6406208053777096,0.21293045895194618,-0.11956720179830777,0.09395257505164925,0.21492466356353015,0.03867627618365683,0.043119633662032746,-0.2192237159383401,-0.06490263203116985,-0.13667546867794525,0.10058663531650966,-0.29815900827790315,0.08463315913183377,-0.11977975564773068,-0.11006447269792806,-0.003628654847605109,0.14165856295623575,0.06592878170747686,-0.014050937468588886,-0.0807647736019483,-0.07707400552748717,-0.08621155205511653,-0.09066019289478554,0.034200503867515844,0.0020909409640830242,0.012859662490728903,0.0004923435895977887,-0.04177312658926331,0.06600994538363854,0.03765239592874972,0.10905635850914618,-0.0994509410841331,0.14177255198683922,-0.015988366339591147,-0.0020692716940588518,-0.00856882594340701,0.04361388902060445,-0.012978454267746603,-0.0936040428164448,-0.07058847133535795,-0.06692445737940586,0.011479208864171163,0.10473532727391668,-0.0030381255488782554,-0.01981426448822076
41,3.4201398154601113,2.0376337935523794,-0.5364326611951893,-1.155148546561663,0.8785451320687687,1.0425826699617913,0.761626080232047,-0.31092196163844127,-0.1413146332929226,-0.48684702394322676,-0.7620685209852193,0.02669653417266835,-0.06975866268243783,0.2257984997360795,0.6801823255412459,0.10111524182711226,0.3162563142047478,0.4094400195712786,0.17483927055556236,-0.2909049916718722,0.014183662543326345,-0.15990390903805632,0.12707271230403897,0.3509720879490813,0.17223510602655853,0.24304723482254373,-0.18502415027463026,0.11131069826330275,-0.1144494415190693,0.2226414202453518,-0.058366849740256466,0.0853647812863871,-0.15177495918794162,0.028937349597459344,0.33562689356300185,0.12609577299719435,0.12010727368873683,-0.21583298749680707,0.007626183021709992,0.054363160773205646,-0.05810412786474064,-0.10262712696186395,0.03855300205315128,0.07247251748734529,-0.1065713893148028,-0.22234014054364729,-0.12595081240198325,0.05232695193209981,-0.0505558338158095,0.22917185504253124,-0.11219167039520316,0.14711071050671218,-0.021172799233979522,0.04285060646881718,0.1479893474215651,-0.06764104521458228,0.10167469726735695,-0.07759198511647729,0.03368637101346589,-0.028029142432802304,-0.0015487891988742119,0.10321637154999995,0.09507940311858165,-0.08480753986094125
42,-2.3888450748208854,-1.4117748356077437,0.8828124219123713,-1.8911945869455609,0.5116951961818548,0.08942639861525728,0.9342794533036658,-0.10635457215854761,0.5129412307794562,-0.06760612547199756,0.29678816721863666,-0.21465086332918257,-0.1814311532295577,-0.05124096680003799,0.05492281022058713,0.12199687262910601,0.22788231609540197,-0.06929128150514782,0.11602335973564337,0.011854296885263947,-0.13342374123814177,-0.08858019663692379,-0.2707282084553192,0.0252212102083496,0.21680737705295333,-0.025213582845223313,-0.002230664556556742,0.022578200024791547,0.2373143142272332,0.18340824979676854,-0.1168846749322388,0.049384251310683656,-0.006695139799795615,-0.0223306517442258,0.06124172236089042,0.1519069153246854,-0.0549901438616429,-0.1020184431369041,0.0033127444024725096,0.1145992480413392,-0.27675055384928576,0.07200758614651213,-0.02904331089300706,-0.09877274516730371,-0.20413673371326516,-0.05975916107434083,-0.06927405937168969,0.02344696799406775,-0.07860482613444138,0.12481163721699576,0.026819128951697826,0.076826796162131,-0.01165984785858528,0.061097568073854955,-0.05980951953859061,0.04420722512311502,0.1418089762542163,0.009590690109687551,0.007012965841406184,0.04460103601966222,0.01662369600878993,0.01260906149685643,-0.03878814630211024,0.04540840518006222
43,-2.8791192492745297,0.27699393411351464,-0.21705842841094591,0.15995069662429542,-2.201894853752847,-1.209343473452583,0.5348805674863192,0.032675921474546614,-0.4836776389343887,-0.13694680416091531,0.3849577942111412,0.05016275337093773,0.048668510515637184,0.481718543234516,0.3858524893048489,0.04676088647932301,-0.0264493991420137,-0.22172233070981207,-0.036541769405637234,-0.06928090385531724,-0.43112823732752054,-0.1747873986827227,-0.0062174001314709276,-0.03792727112734952,-0.023909737119203495,-0.024720942567742762,-0.15852682823939968,0.31056612022359875,-0.09149490030220878,-0.11333422429560015,0.16691865252672092,-0.11283478895391111,-0.12169696363864424,-0.011830300511981749,-0.034157487868350746,-0.24578274457946397,-0.16405493447335018,-0.06450543023186063,-0.10666064085857065,0.017662186055646983,0.030823663697013216,-0.13223966395275052,0.02547089132375678,0.12571019062981706,0.1907720433957813,0.09167822771358164,0.0035348016891514353,0.027538517882407722,0.10860184515247945,-0.10885646433168093,0.029931195734454002,-0.008736064935047106,0.01797395008667776,-0.07081846858931716,0.04401326217321087,-0.018473620637720033,0.00627172849222444,-0.007032820434317755,0.0171087806523634,-0.04122738086345084,-0.05237739898444293,-0.03265501201684979,5.1800990862828106e-05,0.058010548190233706
44,0.1325267171406733,3.919208224599425,-1.2076168665700107,0.4915324850384888,0.3969120984517012,0.19622780205989981,-0.5729630567497515,-0.18151336177801497,-0.21305624883292762,-0.1792268421682447,0.448605491349121,-0.03986790816894171,0.011109733977034141,0.02383879872774763,0.37662184304912383,-0.1829239229490554,-0.09113820304575279,0.2204354514707921,-0.12840545981612603,-0.2762115286448059,-0.1617773985938479,-0.16441775377975937,0.01292331176763222,-0.011422177536579406,0.046657811932443324,0.027678792267103618,-0.07450030403917424,0.025059800818736756,-0.08280904218187386,0.07966357826164785,-0.090937634229267,-0.0585508526465958,-0.13180229605819252,0.02054174975732451,0.042859562209914485,-0.07114968797337926,-0.05574968138245928,0.025559991198954496,-0.056643800881092436,0.01537178126593227,0.09765507913715187,0.002893144748597932,0.10176120172471918,-0.04814042374151438,0.06526377205485002,0.05410238970109568,-0.04486194172287782,-0.06290461345442605,-0.05718088916122192,-0.06572238347051684,-0.028043877736012572,-0.06374431109446124,0.0719876462998089,0.050721557528528693,0.04161327632811371,-0.08511621978094645,0.06284610784294403,0.08888303161215277,0.0130772439378552,-0.013217794245504184,0.0076292624921647,0.0056742017767603,0.04150069964920003,-0.007749835324729464
45,13.953077676579916,6.743706213512058,-0.6016230853759788,-0.47905568013992456,0.03738021217334845,-1.3121629149323106,0.5189856549537558,0.12183131688089374,0.09612738930584151,0.02709950753336585,-0.25709080536827605,-0.1512670685725907,-0.10520171948060511,-0.03700715678704575,0.26614698475628784,-0.07446965510670528,0.11310324248370857,-0.008043897543045915,0.09344157690599748,-0.19671500025860977,0.008249259116934388,-0.08303799197027614,-0.18699670948965605,-0.1754359540214373,-0.014609819502899017,0.06905077375362059,0.03727209556489975,0.0376953877091637,-0.07748801303770379,0.10741106326443134,-0.24194195377793884,0.007186129627262245,-0.171248091442844,-0.15262108087714849,-0.03600171611181012,-0.06905869248489854,0.11539248033479688,0.10560775145211496,-0.005547869535657035,0.07176487410130902,0.20160109460231787,-0.03809737121116046,0.005582649135748566,-0.03227113178888295,-0.0779297964284996,0.09782184032542408,-0.0873710095230757,-0.14972868816511287,-0.047896276539673356,-0.00439087089690757,-0.007072537220184656,0.07859333960953559,0.013361846800728017,0.07882745249004176,0.019618700409481594,-0.01267678365881794,-0.04922835257923716,0.0012824128158961813,-0.05751242553649391,-0.1388620333669796,-0.10797021123208805,0.06308449598129098,-0.008889068778810115,-0.06907760637217833
46,-4.044366121217034,1.0196120638695623,-0.030464226980262018,-0.062207700819507585,-0.2706160141322788,0.6989229399801048,-0.6036351311103008,-0.13537467416221646,0.1421559889559321,0.1659944128325126,0.23467597350742497,0.21150228097049578,0.32579575581440334,0.06945298823045298,-0.09304364334356073,-0.22637061380189727,-0.21227505760224605,-0.060517059028731765,-0.08344118893477336,-0.05345890021422746,0.050517440355456265,0.04341762342855198,-0.00975221630575127,0.017666425938862886,0.0016371552042247798,-0.16622325048982706,0.018065719443098566,0.0771741746283959,-0.051461286006701634,0.006012299305314348,-0.12120019032579037,-0.02284336191217873,-0.01602461011837801,0.022910323186107986,0.05088626630157094,-0.018426024335918754,0.0442939071205337,-0.06873487342761953,-0.1358326107276791,0.11786190933436734,0.203048641287206,0.11795132559658775,-0.11366240344957007,0.01348663626265187,-0.016331834060800784,0.09600715261758568,0.009299804433649785,0.027483867389916303,-0.05208775430158327,-0.04027185903629969,0.030585250590002985,-0.028431899866938906,-0.020768568458104056,-0.016482555879683565,-0.05745261125299108,0.016110463353993524,0.0004123121670292703,0.04668127534999052,0.02922907737377946,-0.056309072017085085,0.014119791966967426,0.013628948376810961,-0.02978020108235343,-0.003649462418693073
47,-0.25773894140839243,-0.14510540500554125,1.3797841225448266,2.4241849072856776,1.1883890480003028,-0.7110564843090501,-0.7696737848736024,0.12653372403893812,-0.4964902162924353,-0.5066181531722048,0.39552886740882887,0.6442520518624162,0.32329806085531715,0.4397568027743377,-0.18654602544299376,0.008904639893580557,-0.0819034913158191,0.546760000561629,-0.1240415236050854,0.04149908087666611,-0.17326199039450543,-0.017057962116468227,0.14891117374625942,0.0594892465868556,-0.26945102414788225,0.2829094640783772,-0.10193899152320578,0.04226551084660895,-0.10971716775619064,0.16657567026632333,0.2321103365813222,0.24721635650778248,0.0715770070218589,-0.12909320417365153,0.03475732441533233,-0.024710673615609503,-0.2395546440380011,-0.1016470034012879,-0.04087695084341444,-0.001038519636480097,0.0014041988916264985,-0.010483915035136295,0.11040692349497025,0.25593820244666987,0.1165106171938003,-0.06863680787256467,0.156526686549515,0.10328523057621566,0.014347942709401252,-0.07423260121600823,0.10721880134765466,-0.14315037865554453,0.0564612358454851,0.0043385515921310295,0.03562476531738015,-0.003233484885480123,0.05156434231111271,-0.06366438996595086,0.06308512601733346,0.0839829497560174,-0.06591127945894225,0.05886576296822702,0.029089064578181723,-0.02777635769577363
48,-3.0471964355202594,-1.5451133209750787,-0.3256067939269702,-0.22235103591547953,0.675987953289862,-0.031478466629429804,-0.7166783825068533,-0.061404272655251696,0.17936698995764194,-0.08733919220679182,-0.13326982214804498,0.1922027383451446,0.16814082168451042,-0.15056855921981144,0.0940994329911972,-0.21863278971001507,-0.16163787441934474,-0.0875713644622459,0.00010434913116696893,-0.17689208986387342,0.30551557880244357,-0.09799627139630719,-0.0106938696191821,-0.10970108192203602,0.033278389994615416,-0.11329534178914571,0.08842090398365178,-0.022068887044319738,0.11394825866625462,-0.040545941692673435,0.017701137001967356,0.1238434479180805,-0.09511345969626281,-0.12359371123738132,-0.13439390578068994,0.0350697359367724,-0.012041737210314539,-0.018706129784619496,0.013963174280748523,0.011660821579677912,0.01554546536393686,-0.029457914711512313,-0.04301625787913917,0.0866078308023625,-0.030190789819138565,-0.041597508496439575,-0.05411771403323431,0.0807763754359634,-0.03356793671365681,-0.09682922431557123,0.033086512946420864,-0.03903028557798908,0.042129288670476224,-0.09730010792849297,-0.07276882099076588,0.017628808705831712,-0.0010952425957896634,0.024484101484902838,0.04040516678608432,0.046611296942310684,0.003913619375254032,-0.0557993583412381,0.010821664200581407,0.017587095232654285
49,-2.3959014837963744,-1.3848973011665209,-0.15962588797476268,0.32168772946278457,-0.6658867234820067,-0.2555904817139005,1.6512571220951517,-0.2193412701378192,-0.9150976068928216,0.16369349649251624,0.37954348124374265,-0.009139217605193152,-0.15488176868354686,0.010886009401560365,-0.23304031239039602,0.11344510623523009,-0.07472136023003938,-0.4045516189074853,-0.14882699525708512,-0.1041542639070359,0.18321162824618115,-0.06665363236982498,0.10993621589100022,0.17410195497807052,-0.10226099829132503,-0.05933599696010918,0.20025221759562847,-0.22067003716807962,-0.12962303446874768,0.04921513947969919,0.07553906869289968,-0.047381866862885,0.22249198875751633,0.02175571689485458,0.04795832884430158,0.10538168431232735,0.21714082943284838,0.13326089219031365,-0.0638611700732739,0.20359414091212255,-0.018516962067986444,-0.017641860463343578,-0.11043655415462518,-0.06177110593556145,0.017719339643056154,-0.017044477885894405,-0.023310444959407275,-0.007057469282118115,0.037091309828358364,0.03194756831877099,0.09928721621445624,-0.13546053894070328,-0.021081318061890914,-0.05749552549049815,-0.015241674133868054,0.021035796207818532,-0.0022744859584455544,0.10001307215125108,-0.0071061205811456234,-0.07709778326379355,-0.028502027221179296,0.06905122827089165,-0.047573296980528916,0.008171629438942054
50,-1.367708721955236,-2.804614136558848,-1.0602879135733818,0.5297861277786098,-0.004778991803555713,-0.06028268448163073,0.16382574350590792,-0.43032306030468404,0.21567144003220573,0.3093919795447104,0.07597883300425776,0.13550055373024564,-0.37558915535374954,-0.07146570822177081,-0.003615583301773343,-0.06937392142148124,0.1400149386733274,0.024033267521987575,-0.06424081710817742,-0.06750783613788584,0.20191759109644636,0.1177461183907915,-0.12276049434759544,-0.11427865791813967,0.12018431681662345,0.0638778874354778,0.07932798851867923,-0.03833960017580063,-0.10945271225747881,-0.10623957977938721,0.09364522791900831,-0.05127983597790744,0.05764910731629086,0.10724659469704452,-0.05701569760579625,0.08455126389284587,-0.17231573531984992,0.06466589084332947,0.01122747780102442,-0.01440231773769044,0.07794836657938076,0.02242160940146549,-0.020328432136931276,-0.1888337629922451,-0.006503285503145372,0.06460135897626113,0.07439517364097573,-0.05391070706253911,-0.05921229527101109,-0.005478259130961319,0.1285675756043802,0.06689837174532615,0.1403523085211335,0.057663757183446664,0.06730642844253293,0.06111348925359177,-0.0008584934369147988,0.03758773973706163,0.011299110644285482,-0.040078576691954367,0.006945050542630994,0.010150884114065001,0.0013849291157204595,-0.04923241752790138
51,-3.8575583485007936,-0.2059881083571464,0.2574895727246631,0.01893554141045795,0.25914461134438427,0.24969257951661766,0.2779401946327808,0.19111713320667834,0.2179802821276991,-0.24480002126316372,0.2983426426871107,0.13051499661033214,0.12810887920537134,-0.13494404623665818,0.2275775759455785,0.09797189509730449,0.25114170573581523,0.1293231997035123,0.19821228223998424,0.11413677139573718,0.14165176490351372,0.18886320245796603,0.02273438161466031,-0.05831344565687277,-0.06186325117594959,-0.1266746967510315,-0.01384262774438346,-0.08469151364313296,-0.0006364201805098075,-0.06900966852360502,-0.12974912586254564,-0.0346386058156145,-0.06314492913844681,0.1236222142860246,0.005650469866860145,-0.0489688078380461,0.15735401585519004,0.02385004528001896,0.08416109162254744,-0.1426720339422431,-0.05604268114607117,-0.010798965162484221,-0.022365460567292272,-0.03626311197535875,0.1070787700837507,-0.012406686043946135,-0.08798223127574273,-0.07585848910792795,0.011118250516381942,0.01219531708119629,-0.016761082417281956,-0.06443198358467474,0.0027834508633566056,0.040471781812621996,-0.0164976667602094,0.08194018709894468,0.00433289851166316,-0.1031575600834109,-0.023482940699182574,0.05113822275115958,0.039113294746886,-0.044178636227872665,-0.07149716321834437,0.0009629399400580553
52,-0.8649551153018732,-0.31098779748966004,-1.9012833576520851,1.337491629261706,-0.04810045419684799,0.12436644963797143,0.899821041151972,0.22156047911097113,0.5418523841980274,0.23389110026163085,-0.32323539009049396,-0.15287955835067882,0.22469006863598465,0.31174076774763765,0.2618695782080423,-0.03832042781417017,0.1730968402079215,-0.250386576211666,0.057708555467338815,-0.1987696321009461,-0.1193162701717877,-0.05699616794097548,0.0368374040908823,-0.027831679813692514,0.25360632771270947,0.0742184375783857,0.055188217971067606,0.1679546323243321,-0.02115429150767694,0.10707506203491132,0.13672793530080615,-0.09135376783985041,0.001991801176874219,0.11128847564992392,0.025334978821649277,0.006820581945556464,-0.07309997893925632,0.15430668587003785,-0.06478161600666758,-0.13617935474046683,0.027487504336167982,0.07835366051151517,-0.050008268210855536,-0.03162114380891988,-0.015709185750683956,-0.08150693556904968,-0.10504575000420538,0.026505454665229973,0.03604452618941344,0.04176366161646138,-0.11090681521653656,-0.1117214105311009,0.022124618997068024,-0.10388891148616029,0.05604249219000961,0.08185942800973983,-0.008235944299474118,-0.024588471242329542,0.022750480061682333,0.1403994757153498,-0.08396674511087147,-0.04599092493923401,0.07966049252894758,-0.011516710510419567
53,0.37005647199327024,5.267429874477159,0.06388668450684562,1.3623935307380712,1.4402575927865204,0.5607596496769438,0.6532515469921806,0.21711525501471207,0.003914761419082777,0.19290093018538476,-0.730949670738057,0.003367778970859373,-0.19729320346651183,0.047618827191651156,-0.26894180438937626,-0.32578197685600113,0.3367948543705102,0.4467219140205087,-0.07170599492365692,-0.038438123633410405,-0.4019174642543947,-0.09769920514081609,0.008443068534176913,-0.15061631007172968,0.20563747412801717,0.1856138178359228,-0.19812897498888055,0.08451922033261972,0.05766955075907851,0.05104668054069423,-0.21755793169102644,0.025987820683355423,-0.07340628190541738,0.18572559033015076,-0.13861239695076702,-0.02098619951978017,-0.15586218629558304,0.03702617635402904,-0.27289495076025194,-0.09149440359314893,0.14546784539767818,0.010909398139304857,0.018871455243521438,-0.07338221604632846,-0.04914525214927832,0.035593918039906226,-0.025034577683704477,0.07117380476598045,0.013960096164564197,0.06452554219026256,-0.03876397339749367,-0.08924909910758298,0.028030620012610325,0.0367512911998205,-0.08061249214618792,-0.024088045421816664,-0.1146450602882587,0.018388981293614326,-0.09634818590065607,-0.005490482720505521,0.003844339795961487,-0.01863784009915588,-0.062304921749176345,-0.030594959463872574
54,0.014125317594082613,1.7321878755261046,-0.7315415714131025,-0.09775612370086911,-0.2598367590233292,0.08198056542606016,-0.0826386107193433,0.09945570506962578,-0.5562272191631266,-0.29250602070993,-0.36143788867924576,-0.08382974545624686,-0.07044679097180515,0.10111015157471843,-0.11400854188203889,0.10895570506140545,-0.16666232215079366,0.009741911999510019,0.04439281252781113,-0.12385955062360669,-0.12970620279841474,-0.037211615841704175,-0.05086049666381198,0.0891485092201296,-0.026295348317224018,-0.11403621615029463,-0.041042809740124364,-0.03380863054636844,-0.0060888705595669975,-0.03144266691228802,-0.09503969250869689,-0.01888596614204259,-0.0032436706743119445,0.010754150523624878,-0.043965508020835486,0.06129740406940815,-0.07172670401034517,-0.007617932217458464,-0.11050910633476023,0.039366758847574686,0.10265683720041548,-0.039679025389322845,0.10001318515019736,0.04966937783133906,0.03547404171430526,-0.07365281814086387,0.01029030045228223,-0.04436492026314842,-0.04071749689243557,0.03400131280923297,0.0391174316627307,0.0005033356187877228,0.02062443330903926,0.016210591955474803,-0.008596584376379121,0.08074117417938197,-0.05679471559479402,-0.04008436673007919,-0.0598510607535374,-0.04733459151608757,0.0297292972451517,0.0748517264685519,-0.0279856315485861,0.03157195655354568
55,-2.677516551611691,0.8651299558030554,-1.1868707804466387,0.5429217127854811,-0.18287753115002145,0.4077600990789157,0.30393474305063606,0.3975358855886358,-0.574549420119821,0.090767187117276,0.03800361690093057,0.20008387370225042,0.18232122054260122,-0.07072285247989551,-0.11409871977859483,-0.12667951787396212,0.007822589067307515,-0.0807428061637361,0.2633673253163451,-0.15720455620454174,-0.09977288112728444,-0.07019520472779796,0.044561291285263274,0.1408679482959411,-0.15596185979048222,-0.11129122831284512,0.014275455123862356,0.12056070667666476,0.04841226442261497,0.0016842280505414387,0.02095800314408854,-0.2340593405496422,0.06706900232029903,0.09466410355998879,-0.041204914629691954,0.035191938426279,-0.11122194499535193,-0.08348333641372917,-0.11986985701970572,0.10300381839281916,-0.04801468770314725,-0.05883248339793498,0.1783118509559723,-0.06941147543896976,-0.141768865111428,0.024585976308243867,-0.01720242364779506,0.0009282137121236813,0.08415701904776487,0.034201160052366064,0.028399040276241704,0.0011228132733941403,-0.023357838694487834,0.05000373069004948,0.0381183978347414,-0.004158224722300838,-0.016762386190903058,-0.03194554865540849,-0.06629125843858932,-0.11418808298576355,0.0025797041686782796,-0.017506837439730225,-0.03992813622718145,0.016570983063089753
56,-0.17269688476875866,-0.18380607072224608,-0.012881254206014572,-0.22692682778948509,-0.4866163694819375,0.3171689167993315,-0.19592228369982437,-0.680535902856463,0.04541081176326312,0.6666329086065305,-0.05772101342014353,0.5014976677551365,0.36976081300568997,-0.03850226143111442,0.2896308850028447,0.7188621509244768,-0.0983900409277659,0.0541373019470035,-0.3135168250600332,0.03046462238421363,0.029535957726432898,0.21445725864440954,0.04872931930616533,-0.10648124376750696,0.11004302178394196,-0.05119249286749426,-0.11030587928249198,-0.08030074810276748,0.022323746943163154,-0.2218972681166088,0.006414959228293326,0.03324297528546885,-0.060877714604090555,0.015767126028057993,-0.025896990089503618,-0.22908816343747146,-0.018076641659117876,0.03687756584449659,-0.1283026791551179,0.1548494157864418,-0.09321588373941805,0.09540889343824209,0.059330309773670986,-0.11212201016334743,-0.09586809389856053,-0.10293982713439784,-0.020943999979622784,-0.04679818877268888,-0.0502746549879477,-0.08116166017152186,0.026662083187046125,0.08365389007760998,0.09457655512118217,-0.06442253953793481,0.02369858150064126,0.08967522644087249,0.03440395170121071,-0.037955256997423054,0.004179099408281538,-0.10177081178230399,-0.050149598222915204,-0.07675768725492738,0.009635077774514752,-0.06773361434087914
57,-2.5036656704835076,-1.2743961754240647,0.5459874720834993,-0.15559413776416392,0.7033749507525163,-0.20384917364022798,-0.12084718323219246,-0.9431522476294041,0.6616367772206485,0.06928595403463417,-0.01650179630432378,0.2306091322131781,0.052605746786428986,-0.1703960525852738,-0.0032935838178000084,0.3014580781746944,-0.1499188249079111,0.10626764222626789,-0.33012994005007157,0.010013488473464146,0.020632678567795944,0.09422453202572341,0.32590636864268824,-0.1529184762388916,0.147663703754644,-0.2933568798593491,-0.1956107737417471,0.24351719011693826,-0.022116039630159602,0.12358613303633348,-0.05493825025687197,0.08273384798149837,-0.20862899414490801,0.16852007831276042,-0.12898482354996574,-0.1257593195252548,0.08871194051122802,-0.2178943125336337,0.17410343457455016,0.09971597210628369,0.07630541493946534,0.018067329038190496,-0.03277698728619023,-0.10266853108735896,-0.018030731954217973,0.07696064916623066,-0.09531511573395114,0.1649284144291647,-0.14644642918752618,-0.03390106168246994,0.05279398975927457,0.024016836067421297,0.05465637549161484,-0.04201514313020876,-0.09377984169977512,-0.10140582059653483,-0.02197369322829918,-0.052215592818791984,0.15609851785325904,0.0818485789791042,-0.034712725612112395,0.04524769247553442,0.010466595858105339,-0.05331929664123546
58,-0.3286098705846381,1.7403257985155935,2.041814142429778,-1.0682658171798605,-0.2840443743683169,-0.16033881074396394,0.37727455550228073,0.19930325247008054,-0.39784860355940826,0.25511230336390855,0.14432436943845747,0.3844653134762093,-0.19730542709092824,0.16471205276473433,-0.15953447626641545,-0.40964110430166883,-0.03858496628653935,-0.05987474527003506,0.3724268493363662,-0.0023639152821278617,-0.012811175514930816,-0.30187958148699906,-0.3892626976252082,0.2918023255156959,-0.2010205169516559,-0.13192332053231423,-0.08468944681740681,0.31376563461319074,0.37787121876538565,-0.15162770444002435,-0.2466357907907859,0.48857388726884277,-0.15016922815963665,-0.013541233951210596,-0.15116786242303495,-0.18316922790207352,0.015922475766247952,0.035565415586121765,-0.13013994588787053,0.1632279525848248,0.31647958139898547,0.12032798498203996,0.15500984646016538,-0.2641989659446642,-0.05585062225558009,-0.16954849812198014,0.3083527720964854,0.1730412889443028,-0.16301522499538496,0.0664980813242222,-0.051011859473264615,-0.00584382692238066,0.04380512508167779,0.06388365162939101,-0.01123203941917247,-0.14039242786805164,-0.05524652660284753,-0.17957755286706947,-0.04311947769377349,0.04186685898901185,0.05448087874985882,0.04194878556607571,0.003913012778124467,0.14963588568309488
59,0.5701961791866129,-0.8503672705519796,-0.19434012647871865,0.5277402747344462,0.5037360255279009,0.3186584284713765,-0.3920157324491182,-0.04094943423503145,0.31757100543961597,-0.19423506804906884,-0.5963654135184593,0.10683382529881,0.04968174038250241,0.0007993128523603871,0.10462005480382636,0.08950234313872003,-0.062149157154545095,-0.16662421668097419,0.031194772243529845,-0.1517805442099097,-0.0096819624132778,0.02184633787073407,0.1069139198996178,-0.01428991908324252,0.05912344398513491,-0.15563292609107549,0.15950237755296437,0.09320608407334428,0.03440317536020194,0.05335835144103395,0.10029262619054198,0.23899880183497912,0.1404948377026833,-0.012585664086663565,0.12489177144401797,-0.018957020945558917,0.010128011441231545,-0.1740065516972934,0.13385209786171778,0.2530345837032611,-0.2613080569677585,-0.0018731132207802951,0.06110865236976717,-0.019248034122401628,-0.03809822186339503,0.011866346742440734,-0.13516952364922658,0.014071420972670981,0.11527917193815893,-0.07149246675636925,0.0949177200121161,-0.06760065501547584,0.09625358503411333,-0.10197208217378602,-0.05710270753347431,0.032271811122602134,0.08438650142976493,-0.06762061739617589,0.05647963550273957,-0.1114238126188535,0.06429852696132464,-0.012858657290503577,-0.007206112340203022,-0.021890289373211975
60,0.6779431043779044,4.980885241960191,-0.19425026690345537,1.318766478395651,-0.24243034567561578,-1.578852092164969,0.1957965776166724,0.6175068780159766,-0.19903499324978247,-0.512085691490498,-0.041938271104839775,0.42817024101738005,0.006374149454435908,0.0781723160804624,-0.15098627714515933,-0.015477202584021322,-0.4844292126893996,0.1537308954651254,0.02365780068177716,0.18410695356530024,-0.22036000664298958,-0.06208027055647353,-0.12042655822399606,-0.03385618204530791,0.26674883320358683,-0.3170430030958502,-0.24316335809932121,0.08530367762029276,-0.04487332826393315,0.007709299557078401,-0.19099683331387787,0.17313143383294471,0.14027616319175537,-0.19274973126024733,0.10317457375984654,-5.672677223781544e-05,0.04131145002083755,0.006714895311858452,0.0322668598668792,0.021147138804402874,0.10425601160071914,-0.17671519958436646,-0.15158318786900019,-0.07567954217812622,0.07246092670912839,-0.08449971031418517,0.08179220970387427,-0.14977804080232182,-0.12758542805820405,0.17398253080987144,-0.04724521239695983,0.03973936030762231,0.024398839165002417,-0.05505374135945913,0.018661979023033334,0.012007645163413776,-0.05293914632414469,0.07050344406170164,-0.008221188520503736,-0.04471133289323692,-0.08335424362220198,0.06217804896352294,0.057542271512364594,0.04603858621111148
61,-1.9630910911107047,-0.42746367352460596,-0.42712204430415973,-0.23005556248883274,0.1281126236246633,0.11237436726915533,-0.3292475743501487,-0.3711606147082456,-0.10322183661892108,-0.0950853441859316,-0.514407610041343,-0.05559504466863017,0.13523869088517465,-0.07337040955133832,0.24462338756286975,-0.12649507118737074,0.13076681464667522,-0.3287186022215635,0.06127526151956813,-0.2816135351944943,0.24913743376893396,0.12698745336124678,-0.0677116075939487,0.10256359597830077,-0.18019985046848006,0.22048511311482225,0.09410159645746365,-0.14456196529657578,-0.03315504093543252,0.16473693413650178,0.041748386445822,0.26147504929440907,0.16752967002218563,-0.13274702949129769,0.15612692456900562,-0.03631204188822623,-0.07083917982263502,-0.13284849648040473,0.23382643616798743,0.07341149529579567,-0.24232967192080246,0.17638801683637118,0.2360253435506814,0.033911570627061356,-0.09242349142979608,0.09771445244845864,-0.05349912398686531,0.2158814166014421,0.08209953085335095,-0.10173526813742324,-0.028976746952695937,0.022770875690113008,-0.07389159326639982,0.06314171679176686,-0.02384306690327131,0.02993748134125955,-0.06302648536472226,-0.001901321793815619,0.048554183724520104,-0.07182149078275907,0.0007275474869797769,0.061028218490450765,-0.1074326340660983,-0.06756075903023386
62,-1.7108143124385256,2.2189147081901917,-2.5791354627912337,-0.3156978835138728,-1.0663979871559999,-2.505780802124986,0.9360412723765,0.06962525364627799,-0.31990724074764926,-0.02536912477708085,-1.0894933439499983,-0.007966135333834154,-0.34008794648842305,-0.16141130850045676,0.06550743714255339,-0.2627348767810656,-0.08058675355413997,-0.1093104322074121,0.15258290738566926,-0.37475600176832197,0.12693563350923334,-0.03350012855340694,-0.10607200908485144,0.23054376779706812,-0.037461429743621585,-0.007908157352965735,0.2818271116156184,-0.0011064909576897562,-0.08557907330728413,-0.030503889862215167,-0.24503781480863923,0.11461589421636137,0.12435563116468297,-0.42440219434894877,0.4301316112720994,0.11076515616836322,0.1742117528005957,-0.09139519007999995,0.15384352933360448,0.10265692724525236,0.05237209504030686,0.04001234877365088,-0.00044078313045936503,0.09102850582104313,-0.11518471771618355,0.07579434955707705,-0.06140320802914025,0.1781431111603023,0.02795862484811425,-0.106778730845964,0.31165216938890766,0.072754880072231,-0.03571012992470721,0.04491526824542157,0.06933793185155346,-0.045016787036037294,0.021158124036403828,0.0027305876204363425,0.12289392671313407,-0.07078984109211356,0.05141645811862452,0.0026039789289996874,-0.08068731932478715,0.10367292370849022
63,-4.1951881370470145,-0.9269391887159799,-0.14823854586646826,-0.13175748362452722,0.5306241902285852,-0.07157547259979825,-0.12491010603717766,0.13916979743123634,0.3512758580642573,-0.09891644785778346,-0.49729129092057245,-0.2106760657438213,0.09059456322113757,0.07868546786043538,0.026324948721503885,0.35158008978991045,-0.19825153900470122,0.08138760089578563,-0.25429340817481677,-0.33624346829353424,0.39649700125426274,0.31654578719374216,0.00044453299406284005,0.05921554516610619,-0.10174204053112872,0.24542681079041276,0.0706922952541944,-0.05897580175746195,-0.25392794769741506,-0.0866020683122659,0.13994075356724808,0.24084876147257978,0.17526821634184045,-0.09100722526626694,0.03660727463263617,0.07366447127854434,0.08496107349408559,-0.1105846592481809,0.18669879310336074,-0.027736217187096304,-0.21008021540582236,-0.13449975777048834,0.07978418222887246,0.042360167583701,-0.018524605040145102,-0.08467045898588495,-0.04290260179619583,0.022170488939755185,0.06679546223774438,-0.08271892971651326,-0.05589894664346064,-0.04059121276189628,0.018594254906177315,0.01871724077292693,0.02852947290993944,0.014089485624735857,0.0312893868645638,0.007935997774830271,-0.0408306868404864,-0.06212578041579177,-0.06842150188841922,-0.022789646756372257,-0.041049119074197685,-0.06238904353402546
64,-1.0984526235752572,1.6641700358192744,1.7476861400571213,0.5767842279738318,-0.4280740133998805,-0.4780564907229248,-0.2145593530331068,0.07968470402938255,0.002954507592799101,-0.0946090106296325,0.17792858603637926,-0.04350065793720197,0.0564339032707755,-0.06731592966297498,-0.005119714321772318,-0.17850711038988562,0.0665513436635052,0.05776176149922586,0.0011168647455860544,0.10867981159849721,0.12248179489575757,-0.14654435010657116,0.10170208428942899,-0.09758948494481087,-0.203771732208448,0.18524479545132222,0.06707011757876402,-0.24019173801006807,0.161424995199691,-0.09288741747141341,0.09439648237127966,-0.2017089677951604,-0.19375512359373287,0.11339514820795116,0.07466863479936356,-0.05878081788870645,0.10641688494589101,0.0076666283831660085,-0.040297741557807125,0.04329046744691588,-0.02745007103873542,0.12914993239736058,0.07128657018183665,-0.011473892781958022,0.046951968880039836,0.04859479201018447,-0.12950069009602277,0.07928387392290732,-0.07049702955407194,0.06013272703558461,0.03554083796387793,-0.02634747424767739,-0.07820140252434103,0.07498295366577654,-0.05706696255231486,-0.04681473522572051,0.05057422388298905,0.07939048727408882,0.11396177696621926,0.16963890736521056,-0.07729468543725306,0.06577208010773569,0.13575901986438785,0.011762716484786606
65,-2.216584778425046,-1.409633363359261,0.18098098810562688,-0.4149600711641317,-0.43027349415868366,-0.06588321382297457,0.08561835613686622,-0.6006219955876669,0.5215157940981263,0.29471509548073216,0.2776357527208819,0.3370916199284587,0.0030040196723939024,-0.3246676308666559,0.0919369453947774,0.24889258503780212,0.006945823300934419,0.024984405681130473,-0.5357349467827416,-0.09818719629475153,0.10580502432454714,-0.03262077714036446,0.1085679087021432,0.07269011285642457,-0.22790237285030587,0.18000906125134494,-0.0833866299072671,0.13857491132520414,-0.10608280516571389,-0.022250467183429042,-0.025311901208171728,0.0600526529398084,0.17564947114755916,-0.3024886898313838,-0.062342463023462476,-0.09278742518676765,-0.012039083013264791,-0.02752737725093217,0.1767137524441026,0.031184953826177395,0.26562971509869354,-0.06629897598545054,-0.19626424476838475,0.033499598861578196,-0.030323164926096574,-0.1377240291530678,0.028976066597810508,-0.0880999271690982,0.058494745926892966,-0.05103971222734999,-0.04446280003798496,-0.025255547159932955,-0.051108913259768594,-0.05640873074808491,-0.03658350787364086,-0.08688998600527968,0.020809958186973277,-0.053476979154903126,0.1302428792707307,-0.10238532887522932,-0.006421882542679511,-0.1388137960657004,0.014422725483874622,-0.042425705021211034
66,-4.5618656312968815,-0.23850806752480994,0.33197820027608965,-0.31794238897316424,-0.046650120181464326,0.4615255269433182,-0.26024916778735085,-0.14337724130722468,0.1777274303039589,0.13098683657418428,-0.03220532397956317,-0.10045381427847908,-0.19175665705890202,-0.05108808441850121,0.09446327540838091,-0.024351744762451333,0.07681975919961168,-0.01752378421170007,0.011361440897342716,-0.0004196171025742797,-0.024572462080788136,-0.09404559365032003,-0.03749442093453641,-0.06318002119873534,-0.12389212595735696,-0.04599078330984424,-0.0064487449485966485,0.04254897436208322,-0.0239753726825258,0.025214933594337654,-0.059618451829948405,0.005268305196694877,-0.03283946965391769,0.027163706393079787,-0.11536190751189777,-0.024110275897682797,0.015104888302702483,0.040636225758605815,-0.09829356777842853,0.027659485909199266,0.08371440115196589,-0.19433180852603743,0.00665778438856504,0.04646075761637549,-0.0723929744903385,-0.04691645328066091,-0.0214083211138238,-0.06817864938886925,0.025995349371827205,0.0036141436876802493,0.01947199103108075,0.0019526621517916027,-0.0782867373794551,0.02144951164970816,-0.0038377608988931964,-0.08787704321681272,0.004651012957662406,-0.05198496106159631,0.013449911605519399,-0.09056262944779273,-0.12428292480883607,-0.043733809558273384,0.04473809642828474,0.03951060850586444
67,-1.3472563586176933,2.932447294914968,1.6483726617980887,0.32143696609515604,0.4075013010260729,0.5035170053048815,-0.6136280815246685,-0.24627560931324569,-0.6259854500218782,-0.2913798454105596,-0.6204376427928444,-0.2595491815228742,0.3203290767009339,0.12024180350564283,0.19589083623400502,0.2582821237372062,0.0385891311311392,-0.2884669459843115,0.10009854751654242,0.0794396551935047,-0.06487218911965792,-0.02721886779853199,0.08492204964637318,-0.02911558815267562,0.09647515045873213,-0.0680914040841378,-0.01758739021502215,-0.04267617971355863,-0.06922513540524004,0.09717438625418526,0.07698329193706382,-0.03427973186045122,-0.04742226678335767,-0.04034856532831207,-0.03949786569983668,-0.031445182630718084,-0.04274600613034972,0.035799228864172826,0.059786274381933326,0.05037403068788562,0.10063494870551544,0.09016851187614416,-0.060661936266432986,0.02974371424511615,0.029651488010984172,0.1460130878302518,-0.03854398294605564,0.060032635682825346,0.009666005901982536,0.07778024903008116,0.0463629354013028,0.03973714115683965,0.0022257320092171464,0.018635473923906788,-0.03198568572244107,-0.029016639481314634,-0.0030505802444140955,-0.02522522559043818,0.00021585514794006454,0.01273892117056894,-0.003760492621488249,-0.013081044590933533,-0.0104297388011892,0.09966999338193737
68,-4.364233323246597,-0.03740097746586071,0.10403831230783525,0.1813489167691547,0.2478044814384469,-0.04318234163539612,-0.08902498364860528,0.06687705084483901,0.02809856829554656,0.09423371410795824,0.08182434841680884,0.191606478606203,-0.03710479929506769,-0.08280826084292206,0.02548964244252893,0.027582622898865615,-0.017483462012735467,0.006473417052299526,0.018855342779397894,0.03230354543257388,0.007771599648481429,-0.01158074559736987,-0.04507832072295037,-0.10679303347875212,-0.0052706809202384425,-0.11585309950916914,0.0035406124531391896,0.007021030967880471,0.0735134624746823,0.04573273805211862,-0.05137899269543292,0.04031807707154511,-0.010726542286552405,0.0033447792098511386,-0.05451102021900738,0.09844535062674781,0.013660064597480523,-0.0269618761479203,-0.08350943901021499,0.058100023595624314,0.03028641359792803,0.017616158406326066,0.05887447845204243,-0.14206222100977947,0.0349280742338986,-0.04611818172884601,0.06392296899076019,0.07127863558413997,0.0023475109985012736,-0.0837512747126255,0.05452395193902849,0.009042047569094882,0.07979902618137695,0.010072885518263493,0.003954332521387282,0.013142595625803114,0.061766578433889094,0.02922683541171301,-0.023012136304587098,-0.008416027293622818,0.0019031705809981936,-0.012204378816100515,0.032589097261539336,-0.035505749968503884
69,-4.095047056542231,1.1004282734489694,-1.0868336710540942,0.3708112505974378,-0.3351666298587141,-0.31695161137142785,0.1795497521606148,0.26478908175573596,0.1714922122957603,0.10192698332632909,0.17851688789467357,-0.059542161214060564,-0.16560833768572158,0.04217418035503552,0.03318016602288605,0.17398025514408527,0.20150295277159194,0.1498444099006878,0.05274046933359749,0.043452075299399935,-0.019411924201872773,0.11842739257661115,-0.06940008724921226,-0.019301814071178106,-0.020633460755045754,0.007881787712467178,0.02949500138813412,-0.06500324483897528,-0.0590981137844012,-0.03999619552077088,0.039070525510970636,-0.013561967641713158,0.006854950746039049,-0.02045490744886882,-0.08790225966937881,0.09081890423622584,-0.13019241167337797,0.11477558767766001,0.15771073568015725,-0.046675999708120156,-0.10680815462425168,-0.07499480282329321,0.04218697616155703,0.0480012623511008,-0.0332975278797631,0.038060635301761764,-0.006069188298861449,-0.01346114199918487,0.03424660522675334,-0.04142433601449444,-0.07330752764071845,0.03547503896561366,-0.057542589741019314,0.015529525282095119,0.044491032081032875,-0.04518287417355314,-0.0024663268739582643,-0.018255739080466158,-0.029061581798144137,-0.08124709514980331,-0.051542859172209035,-0.01813283528789847,-0.015017915292336686,-0.025999252099233025
70,-5.11501149181248,-0.5960550927102607,-0.10319031359107214,0.10366703095687317,-0.40069771721226033,-0.00650030775162015,-0.17745503375618693,0.014561097328781736,-0.08342450212409161,0.00915440502642356,0.029836418386455957,0.046193655992631116,0.03663480747149105,-0.11713001608723696,0.05572553479013547,-0.018416384570317586,0.00743927411878553,0.06802081948063153,0.048310936643273475,-0.018994896239740575,0.012562707650267355,0.10567044843296872,0.02406923651343411,0.0508551951405927,-0.05672781583979492,-0.008599421420098202,0.06783319783555761,0.03052659504508,-0.016404604184695224,-0.014490776420002616,-0.07153064135401536,0.0085631832597409,0.14844757512373924,0.00900366151877707,0.022577415369835537,0.0007944568363038641,0.0021999840485188897,0.06874444700632482,0.006407035880796221,0.07897485055861195,-0.05751943784758495,0.028112317098946626,-0.0037159796501945734,-0.062473392267398745,-0.13321274759858165,-0.08233923603702545,-0.007354655167820839,-0.05870696069423178,0.0018596915486673393,-0.04222687107056225,0.016254771833998313,-0.037373187008300085,-0.014343724114865434,-0.0036291197947095296,0.044371807874989795,0.015431970726442158,-0.04760651358387811,-0.07017078114067447,0.023336535609502267,-0.05317265973215363,0.014610521019891886,0.03909888516347761,0.04126406744654835,0.004663302183251866
71,-5.039991041179058,-0.35079858415823656,0.016547285272054207,0.4371718800189964,0.3968876919107224,-0.07095770961066904,0.07888350195804462,0.11896612834627732,0.10608517485442598,-0.10268987390577648,-0.026085361986115736,0.2037767481706223,-0.20277316451386276,-0.025549398426072154,0.011922449325730345,0.06809653124945655,0.09395593308762229,0.06687074599979352,-0.053153294772443904,0.0777788347761142,0.14121161017537154,-0.07729593880369835,-0.026027772405759902,0.014009976616586574,0.07451382221137225,0.09356560399654448,0.0452263235063302,-0.0722654522862014,0.006309033382791386,-0.0423074227996048,-0.12133482937654595,-0.06656493895444064,0.00787212705412866,-0.02613461548752807,-0.04694552313293094,0.020894426943335185,-0.028340586236717532,-0.09064899679690128,-0.06667585635609734,-0.03131354508499616,-0.012301940648422858,-0.06956289634845858,-0.07575412161336932,-0.014102228632889822,-0.03367897961350652,0.062141449167874216,-0.06367261214702834,0.0030816573786229965,0.03973442618734517,0.08095469198377318,0.0710048029786335,-0.15517996183100718,-0.006497467267053972,-0.005593831114640628,0.03809698368579157,0.06023200249221582,-0.032106363930494784,-0.046743286230215175,0.03706945990492678,-0.05008078914216972,-0.021199351714938624,-0.025119739558869397,-0.009222073884616272,-0.01871436982411702
72,-4.653984648539933,-0.03158707597710796,-0.5373932244379207,0.15020253350895735,-0.5531336843466703,-0.025188742877410384,0.007749688419735117,0.08456751598425798,-0.07645003153356651,-0.04152568813037292,0.04902973928023084,-0.06165877128258946,-0.026204393947346437,0.061066283524374015,0.09862121794317086,0.1532368892975162,-0.04082311945679855,0.04831714532295848,0.0036228892942503184,0.07104211882986246,0.04789125558803309,0.010338589296799875,-0.029619791922903118,-0.047563631218989925,0.10601390088529827,-0.016172705869715722,-0.011266535247679262,0.059459816482714825,0.04309003344081154,-0.04720317539953371,0.07556599928864617,-0.09784255468421302,0.1036417797857657,0.02180303535758102,-0.0031513653456846564,-0.04658508310497037,-0.006542620011597663,-0.14905103570039943,0.0021002306110354694,0.002264865081027678,-0.0365060768562954,-0.03340412478987609,0.025241388807244518,-0.03986003095096507,0.011124413622969101,0.044123077090945546,0.009304684515646748,-0.06283378370746279,0.016151395772578722,0.028542592436314417,0.08694366602859377,0.008893661026199994,-0.04052002782342823,-0.056370469272196515,0.018865370693527454,0.03841008207155285,0.02092896479872286,-0.001346423136225059,0.06076613555439441,0.01946129567080531,-0.00784476236744027,0.04533024315614212,0.011129809965403538,0.002518112116357392
73,-4.220815596879451,-0.21212057606334275,-0.6674542477758982,0.4810763972729529,0.4041518594091976,-0.20355119567089716,0.3248690634814215,0.03852567484449054,0.1335681423404548,0.07732746524768445,-0.050784646693220054,-0.07744204743928365,-0.03378302713027118,0.01844461274278373,0.04916193852580169,0.12016511930159263,0.020136975388029225,0.02498508661365746,0.023422969242291283,0.03709292251112127,-0.06477779756026213,0.06675236623570935,0.023208713218110227,-0.0012842811393339393,-0.0051262399125926094,-0.05372813480933272,0.04854058668018751,-0.019439555941544957,0.00240891457360645,-0.07463349078924032,-0.05727495895012241,0.02799290520843266,0.00027506933448875155,0.10659759995363663,0.011032411833131469,-0.03209410141914807,0.09382188089307979,0.09793974656780197,0.029710580066074983,0.036454470091301296,0.09492551016791585,0.09432139416458434,-0.04103743392446303,-0.05076856327748183,-0.06314085006896504,0.0064129231012976995,-0.029429236383670683,-0.06170068072302916,0.08529988188515852,-0.014563468982890973,0.01246270853389734,-0.09103962001675696,0.016825480941318742,-0.08142303308989159,0.017559729656820282,-0.0373753879114597,-0.06538602766023059,0.05981993726850882,-0.04709364166823102,0.0508513852350329,0.08095204174026455,0.0729227854532149,-0.06107346710380345,-0.03847109904909269
74,-3.9161331862647493,-1.6052209106423054,-0.01644759558604911,0.08066941491176327,0.03940946087260884,-0.015328255256037674,-0.08977052466991033,-0.12196254883209945,0.09970840564339971,0.0416751586190988,0.11596483980618442,-0.08061988140503433,0.07707583528448683,0.012362740175194033,0.11201241367364097,-0.00010151231952624743,0.047051468107017005,-0.06775857324805973,0.0010402725189339686,0.020945793094745653,0.06338585045678034,-0.0067697274385031085,0.055321872442410755,-0.01463213572550943,0.05870121555145724,0.021241894295803563,0.09347058285740908,0.01836299184956995,0.003936495615416656,-0.04476365145180056,-0.041401650311141035,-0.03487559397880032,0.006094256647257077,0.059206664534847575,-0.03220448876283883,-0.014344164244325497,-0.06783407545316919,0.04162215606288359,-0.015217147128811467,-0.061739422021453855,-0.02617672861480839,0.06288659522972168,-0.06700663943133842,-0.05832769759615772,0.08473254199975591,0.009699134565865894,0.022215018896972614,0.06210857438024572,0.09548178784443732,0.0335028038090224,-0.030984792842651467,-0.06270543542659765,-0.010526741706634146,0.01912585878093719,-0.021803276620944056,-0.04006036726390411,0.029442057350682713,0.008293317259865316,0.04163470103909086,-0.05100095344280378,-0.05897034737979978,-0.030185807949639664,0.03588138836488168,0.08084405702380977
75,-5.267794540017881,-0.6164819929997138,0.23355374286936362,0.013619511343154962,0.04270946699886453,0.08342040556709214,-0.052797373991690835,-0.18901249487490956,-0.0564054129867846,-0.03678139015299027,-0.1319345529108169,-0.048162721924459966,0.020512287577895576,-0.053430639972174315,0.16717207483146676,-0.048174825649793446,-0.018525554306627993,0.06422175975425486,0.041374704144128145,0.02241036980434262,0.12432088724191795,-0.026522885365015972,0.04292766197204594,0.012464162117233099,0.060479845033472604,-0.02473202799473184,0.024487983427289237,0.05493820480765694,0.060787764972460204,-0.1321846679463228,0.020880960764023543,-0.13164308460549473,-0.013158999647419874,0.002358528158129068,0.0005102101562425262,-0.07773052828711315,0.0503645241075322,-0.043490183312539836,0.00024065464314493304,-0.03874816387396854,0.08335861993831951,0.002179321480699637,-0.029723301587249253,-0.10344272097241412,-0.0156423490195511,-0.0037059935569366273,-0.026081286199037497,0.035144684051717515,-0.008906660706394771,-0.018952827214926516,-0.0155714349613633,-0.002947284450985314,-0.05399267215267624,-0.038287236147090585,-0.003732828830238479,0.015037259129382908,-0.06555114904896579,-0.03786266799464188,0.10055515497511627,-0.02605580529511262,-0.011407531840479272,-0.025009306539111646,-0.03194312067985757,-0.027364423013966216
76,-4.9446261925736055,-0.37109358641501655,0.030420851050225187,0.06803937356940251,-0.33304694388497474,-0.15924653234802838,-0.2845256052443377,0.028733767511220042,-0.08116315793592513,0.017512942914345127,0.07669347856254963,-0.10032197568670694,-0.09209312664607731,-0.06517874579195128,0.012963730817106332,0.10978415528172655,-4.051033062603777e-05,0.10915256867082761,-0.09023724403623748,-0.004752742267380923,0.047154434302466866,-0.01625743929905498,0.03237732558659527,-0.0869599319926887,0.002788146639749508,-0.019310740876987934,-0.07666709288504393,0.006371426757682243,-0.07711673371527629,0.023183021827258343,-0.011856383087278625,-0.08980029551790705,-0.10299723268610342,0.08880981863981523,0.05088641202701984,0.00628400415584848,-0.0456894012451718,-0.0900358259216517,0.12480341412037378,0.0031430614887731217,0.03196393101391143,-0.17170423001075805,0.02863108294004091,-0.03984516495307873,-0.06820391758288243,0.029852791510023402,0.021307755738720277,0.017089637807573,0.05688441942626396,-0.01693109333570088,0.011947850998939772,0.007576264633621658,-0.04848630220823086,0.05368050047641191,0.0995024756500686,-0.02973380661073946,-0.06065081550336543,-0.010530646411050183,-0.016145870363437717,-0.0031868221985102622,0.056319362367588714,0.0025576394388208594,-0.05852275778238738,-0.11976420834932225
77,-3.391692616460023,-1.3964829796730305,0.353275025143169,0.8258650183355921,-0.23204733318776813,0.22503958997495735,-0.1112360546996288,0.24722277047650695,-0.34012351373892025,-0.23597760925549752,-0.06875765841771211,-0.08918628442148152,-0.15454001153875896,-0.20730055370272954,0.016113062678757704,0.08799849940864958,-0.15706811584228733,-0.09437922742768295,-0.16165131989620346,-0.04350205918407235,-0.04885665243458941,-0.07829346686183548,0.04098897155660819,0.0012087126335337765,0.09375066817256213,-0.021543438604229484,0.11116266151763121,-0.05880296870906531,-0.03516479344810178,-0.14177693629941013,-0.015561037704840948,-0.08916562594217181,0.018790529310432198,0.01546481509675251,-0.012791151339942958,0.044899390303800295,0.1212262153798068,0.09968899978955585,-0.01934196048918478,0.02437259509687938,0.003910976830852236,-0.09446555271866228,0.03287552955273092,-0.002214107280776471,6.160875876413588e-06,-0.04863814514260577,-0.15051908129196054,-0.01572395688252052,0.009885155616016801,0.016737177782869046,0.005737194392643361,-0.14239415705517414,0.007816440246692438,0.012529105723001996,0.031923590986510646,0.04572869837773582,-0.023760851618660123,-0.05304581627851305,-0.010491132915630873,-0.10432264640300114,-0.016914565841600702,0.04158148797428952,-0.0228979895813572,-0.07522999567847877
78,-3.7347129002838706,-0.9631404109087845,0.38762047751701495,-0.9300581412796262,0.2124830202128652,-0.1877751561427904,-0.1028812264543874,-0.07601337651780565,0.09877944284226704,-0.13983148850756916,0.09866848680095021,-0.08566112279160233,0.020424450679107167,-0.051824468880020215,0.10122929134674283,-0.09067193864334552,0.0201163807669117,0.05956062809449255,0.07470343540429898,-0.1526102625065745,0.074885521790249,0.019777390031909144,-0.006777344539882528,-0.056081660458898744,0.045139347978891985,0.04521603041290086,-0.18950384959071087,-0.0277667036181816,0.039212592040905596,-0.019520842350161476,0.030524721868102025,-0.00020886775957964777,-0.03645512123123584,0.011670567473071759,-0.006918334983224245,0.018734011467300263,-0.05195297485626455,0.026375382987046322,-0.007939499109539115,0.013752566368539451,-0.10251885200551457,0.03578006887390174,-0.08261446443669597,0.10158316642257709,0.012484346604201758,0.028114996793650853,0.002094114891749675,-0.02998216176839661,0.03322729908329448,0.006468509052621149,-0.0014854573765460085,0.038353872443854756,0.0183430478245249,-0.04119128026715487,0.029800789770317547,0.15278572245260164,-0.014801827075942443,-0.06929963370444242,-0.02023785848021096,0.05814379629387319,0.16936112543096712,-0.05451034345564911,-0.04419044512369494,0.06289786938371919
79,-4.637543716010215,0.49045766874839186,-0.29474376561992377,0.37981716373839847,0.13483578831925652,0.12960591622502488,0.08833139223403161,0.03669042363997082,0.2399249225007569,0.12947284153973884,-0.050660745345692204,0.030779125693132816,0.09343035139606945,-0.010809131022608961,0.045168861577205295,-0.03370449639400313,0.17142126990163686,-0.08687726257435469,0.004433513228868044,0.09928332486317827,-0.056232406822422365,0.09454339735321646,0.026618375223687075,-0.08047078478743308,0.07562767162349328,-0.03240285128486406,0.05796907638909757,0.13809335848577114,-0.039089715983341634,-0.08032459240270241,-0.023835367778073303,-0.11504786451979038,0.015571349468143274,-0.016984830973829773,-0.03410048623322451,0.011937984332781156,-0.001487800674465487,-0.04796061037258383,-0.1051624000433045,0.03976751178595281,0.013138911594222641,0.09184170145191212,0.025980755630983194,-0.05334638402353025,-0.0406803048127579,0.025211530131704317,-0.04971037886590843,0.08063040946950331,0.013549557989556803,0.042049136278290815,0.043584417190535234,-0.07235587021710961,-0.03789271066932986,-0.021656308055641997,0.012616071840845185,0.014046211386597668,0.019306755204849493,-0.04385207059546016,0.028692236091136376,0.0556707737991675,-0.01009553400479739,0.0223971242212949,0.038712411373816646,-0.0029932663632032124
80,-2.718246669949196,-0.5201383929950766,0.3407068977559188,-0.53564065470361,0.33961405858713234,0.43067663675263185,0.16074781119948917,-0.11776385079036333,-0.016552580004083176,-0.2343578512575634,-0.13555293122630013,-0.08109999434017971,-0.2045718560357154,0.387728840424432,-0.07387952751712626,-0.47599310541211204,0.09808565008380811,-0.062368826994168514,-0.013859089389362571,0.18510360877044452,0.01042697960176594,-0.07645672516322655,-0.059929047803267785,-0.04838475899270196,-0.10287846819132067,-0.083418912267304,-0.0034579887977593663,-0.016544165081726542,-0.1746987165213431,-0.19819723291259136,-0.030020864691542505,0.08066793420712702,-0.05322403929445771,-0.01418117273703349,-0.07922295888044611,-0.06108367510846088,0.003145482508369696,0.12089932650825529,-0.026424738990137586,-0.0046147972164233,0.029301276251673336,0.07978695329949384,0.06934059682548656,0.011744522191304185,0.06286778489826923,0.009517322005262915,-0.028717040982938688,0.053316468417686926,-0.03479144875546607,-0.0036559622250466606,-0.08616418899849895,-0.012082434483788023,0.009526551083322057,-0.06949351670470871,0.02752693304817163,0.019261111273425016,0.0038251179555227107,-0.019716249157666798,0.0020565569000418685,-0.03698909138905003,-0.07761893099872404,-0.04938491796782511,0.05067497401896215,-0.02023354428618246
81,-2.748806888011297,0.6966849990488354,-0.841637794960004,-0.43180059470311694,-0.5251969562499902,0.4047255891675264,0.17106964823252593,0.24498632699128844,0.10281179392814185,-0.019409699876770083,-0.009734951298044773,-0.25465007224065517,-0.08003911388351086,0.11419843486343575,0.05990523106536432,0.16168824772448742,0.1658971765410669,-0.1195746195611659,0.20150610390779622,-0.13500587563937827,0.023979416892901256,0.0991563225143379,0.09637104850227717,0.010795560217027525,-0.11315653738951723,-0.04818715818316143,-0.11550885952159966,-0.0904551596398977,0.019627770342854185,0.03179247929576421,0.05755270166503984,0.022735235059760304,0.16495478172415906,0.010250432389785633,0.006331623458398121,-0.04416141780735024,-0.05310711086844772,-0.07926065021170997,0.03572118706625406,0.1332399070243562,-0.008125140086716574,0.01751636471959174,-0.07332437921319081,0.1052791756688535,-0.023639361666641472,-0.006092144528142765,0.014467807637873347,-0.011934409480549303,0.011701539656179562,0.04361584963023118,0.007421790778041707,0.004760534711686038,-0.055909554020556716,-0.006705455114607117,-0.03123303107417776,0.01981083076506907,-0.03717465138405199,0.03558496213709313,0.01156078403020262,0.03468159557692588,0.015004062422001523,-0.05254063473877209,0.04569956631600821,0.012770453588874707
82,-3.629469301141232,1.6485623066552708,-0.13588378067150453,0.0357631273569328,-0.15648875587501992,0.24375802652646078,-0.019001896119850224,0.07527274433947818,-0.020910015556768923,0.07015256021884507,-0.2131976823502413,-0.05847586871871718,-0.13703952824099866,-0.1870454779487636,0.010540943069949923,0.06813469706356616,-0.0009226965625119243,0.03303374316985572,-0.040083247480176505,0.013868031058761568,0.062298887240137955,0.043368812409763105,0.030842421029686266,0.03749461287944209,0.026951359288693733,0.059985740010300055,0.04617531466156173,-0.06569160797279038,-0.0842044713148819,-0.07648652225852062,0.009604848329333622,-0.026880513616274433,-0.06124034690064647,0.036179590767826945,0.11086307176007902,-0.024196488248796767,-0.08196849886611438,-0.025377464071012608,0.05892359375854544,0.01408191420573255,-0.02182847690170816,-0.06378309696598282,-0.05375820513026979,-0.03223760808710669,-0.023230458219343126,-0.004071278291761464,-0.009288641798244112,-0.0026330393600006168,-0.007897256301502564,-0.062221652970622446,-0.02833407952260894,-0.005929820183810367,-0.010438213870994879,-0.024183308727794884,0.004686087934796329,-0.023615821003655283,0.016428423027136593,-0.04419594271586097,-0.007355859376209053,-0.008082381489859625,0.09080797443479433,0.0371947319042238,0.028862799735888147,-0.036676447618890176
83,-4.848341705826252,-0.99342040250489,0.2247137207069728,0.30847668210017337,-0.223727327581062,-0.2175715317250939,0.1505315517758435,-0.09774110729336767,0.2518090717798396,0.12756385969893436,0.1393290519725387,-0.16530092940006083,-0.07632699229093683,0.10833159457703488,-0.047687906310293515,0.015215119442007225,0.028856832533098502,0.002527339633219806,-0.09364995223144387,-0.10641818117435108,-0.01286397634834233,0.004452917635239394,0.017667930614395158,0.04983844777329311,-0.013485492502700393,0.014028526754945057,0.05347529053066911,-0.05054318516761576,0.1499533604018084,0.04046194793543539,0.005932337982637352,-0.02743428226341537,0.012514874651101173,-0.06078331935924597,-0.03161335994505186,0.13109291620947278,0.049565978217780866,0.11481277411463317,-0.013467204113430458,-0.017585205653796423,0.0007937431050383098,0.10536862898697762,0.032765974852087765,0.07624856953213982,0.02638618711899344,0.03377389327978834,-0.0185926637299338,0.04076100878548428,-0.028757543837943395,-0.10646948921201166,-0.07305312639812898,-0.014303400625187365,-0.05001237897242041,0.04695456925566324,0.018058884184919643,-0.006121948462247846,-0.07250833060575809,0.01664906148720677,-0.14709060772553129,0.008695882716705792,0.06447642342045208,0.013901055525362532,-0.0035487096310700757,0.029931817773076155
84,-5.019714698951625,-0.5088807852500128,0.3484000441195156,-0.2423042633399743,0.057279365554871876,-0.04793690497917485,0.10586003492929706,0.005056418543449008,-0.005366255652432313,-0.09098855979809209,0.04352759930560191,-0.04455079842447174,0.07592717849846613,0.11276351413027677,0.10923796565736366,-0.040003044935655124,-0.0074607550588322346,0.026991669199876684,0.03561213027238652,0.022632335957904908,0.05501235362266293,-0.07254592978305055,-0.050461452978180464,0.10366384717718014,-0.008391544492165342,0.030856945439635956,-0.0742721502689785,-0.03418439581528388,0.07458753572592096,-0.015683230483896634,-0.04927786119294336,-0.06563054257791708,0.04179550092011541,-0.027758881549337085,0.09436087624785297,0.012432933334212064,0.08318236530384676,-0.04925630048576935,-0.05012315627006084,0.02830518469010977,0.05188010686012438,-0.05794061427988336,-0.004849062202132251,-0.06514833440221636,0.0006319741086244618,0.0019083617899997968,0.01589975484226986,-0.04077500202863648,0.023508033579035515,-0.02603809184375806,0.050182458420672246,0.07319303834373724,0.023441072020439567,-0.023981782895316665,-0.07260255674944072,-0.011451888870349116,-0.019370664112019677,0.0433067992606921,0.008676942389876055,-0.013893585133339359,-0.025685042618205017,-0.04259799846012846,0.04022072523575678,0.03200424887875804
85,-4.118226289851525,-1.0605372836552358,0.3622714463242922,0.20241556317482243,-0.6294821792877265,-0.048559868119095115,0.26658214183463463,0.14054186371942218,0.12677769341933112,-0.09996238210093644,0.12731106464999623,0.13544438658127458,-0.09288234268571557,-0.05618429003565856,-0.04593019874348533,0.11695508624007747,0.028020297742732934,-0.08904120674522929,0.0009592588450862517,-0.06638659492932494,0.06732104367198843,0.07949089813964284,-0.08048094884281566,-0.16267233509531945,0.08481850016288345,0.08510800130741962,-0.17389129222336885,0.11896486237949862,-0.13384154314681687,0.04856395039046828,-0.057924328824596104,-0.045602394743049064,-0.022611631021598202,0.08051369422146595,-0.03151488354423292,0.024170984580565217,-0.08172909014909807,-0.013813646232141867,0.0038236751504375356,-0.011810779847517189,-0.06699504604785264,0.020733757221401375,0.042818155898564504,0.006777020695206834,0.1381773416160355,-0.04189424625237136,0.07812991681070718,0.023274792203217716,-0.018808544991410107,0.017630144667270215,0.04918603804553478,0.023238553775398747,-0.008143499989395123,-0.0812834711533591,-0.04135453259529112,0.047156159394694565,0.04515450411440953,0.02084915399874639,-0.07809749393030087,-0.07480772592985009,-0.011846413004228715,0.015309270535169485,0.002418282926686485,-0.03377216212998182
86,-1.9305084527094944,-1.668416238794873,0.41658659007828264,0.5773086744292022,-0.15689624366157376,-0.28725145050220213,-0.1346625121427231,-0.0820443223906575,0.3079384966199008,-0.020901651009778095,-0.18975052732221356,0.47834765752289854,-0.1626022538761682,0.4458114646551782,0.34598193159077345,0.31666346256940825,0.04514166062448862,-0.022629844957914563,0.05513360939658898,-0.07260562926239943,-0.05524440694785841,-0.2307495196458063,-0.028932819579485496,-0.08583806530894371,0.044837991485918646,-0.04151415672348374,-0.03751953806314013,0.015005588411044952,0.09898523719674365,0.11155234112907841,0.019306756968267363,0.0445355492650541,0.08638622223226182,-0.028552311156906037,-0.005034219541508224,-0.045668799650597766,-0.17465875553066568,-0.07269032554478014,0.049657127983575,-0.11192021945495206,-0.006856389655293635,-0.021131541848776053,0.12834011647574062,-0.035204900327613746,-0.13347330998669352,-0.033771071341944,0.0026360137358767905,0.0274816888085782,0.034043081870208394,-0.057972333001471164,-0.03184827738042429,-0.04684972612856538,-0.05146170263984571,-0.03695146721628363,-0.03163770217129503,0.059327114527570536,0.04352276120067584,0.06362189713665878,-0.010070036003486302,0.028257654023483507,-0.09485024316189876,0.00822971166285665,-0.014367116183229969,-0.03212831409798937
87,-5.040528336456026,-0.6128002392710141,0.1118175688652758,-0.012683705219393675,-0.4387218412901349,-0.18115050680928999,-0.3129264716156881,0.1602976856563283,0.08471755336011376,0.14995774782344876,0.06366646306374754,0.23184822595207122,0.05240205231056249,0.11452668929512973,-0.00067893014748286,-0.00764109584161734,0.056352010904686646,0.11184442813466465,0.00028503381844052696,-0.007073459255416601,-0.046715029421790885,0.03684996347745693,-0.10568567388865947,-0.030352360746840137,-0.03811916594732086,0.008080470014804908,-0.11225221203335678,-0.2633000652178455,-0.10124341839870828,0.022352557848540972,-0.004425104750284249,-0.017471688457667264,-0.03626994082508374,-0.046346503829547206,-0.14153665078837607,-0.15712766452581847,-0.030374220880287277,-0.019793059500472984,0.043602591299641925,0.036081358826735986,-0.041828078955582916,-0.012242343823564757,0.023964566174331278,0.020684286508796345,-0.009985546767647693,0.08600666732368754,0.006160225904222157,0.007871652444604154,-0.07303747082277608,0.07584118748474984,0.033344289118273494,0.04752661133845106,0.024669823318323725,0.0031223346145781237,-0.03239179384091474,0.044051159349944975,0.010830079085314307,-0.10009726881182802,-0.006632959020287527,0.026809367498683824,0.034895365115663365,-0.011039149911790053,0.033172567617246206,0.00047813751535680314
88,-2.8078015692504916,-2.711177601439433,-0.2890133496564655,0.5628049439347274,-0.3132713260399054,0.06209329722055203,-0.15027740171620363,-0.179720419748041,0.07248044965782306,0.08570773958257595,-0.18525137141424936,-0.03915134951671777,0.07172957062130422,0.017711811248024557,0.021613996586134113,0.1358475635968346,-0.08348007660454251,-0.01005223112649459,-0.0487920411098362,0.034055030547027555,-0.09147156956609834,-0.04304719520816095,-0.003553452006933214,-0.07086771574894987,0.027205216916825144,-0.03686290363795166,-0.10163785213382205,-0.025600063776047666,-0.05340088563815951,-0.0025957877781443836,0.06376226549566619,-0.0037066751808772867,-0.06578292961645801,0.06432871927177342,0.05200683389787136,-0.0910017375229776,-0.034873155283744024,-0.0216318371738844,-0.1032933333590279,0.003926269331722647,-0.010029011025364054,-0.07440631080114782,0.00048008624656596747,0.11478848547653363,0.09752747229724197,-0.08737656020938972,0.02291999749114088,-0.008073530494252289,-0.029606160539818648,0.024304193827272783,0.07889927327773143,0.010228196752381387,0.03585440254272691,-0.08028391931790015,-0.007943388288665846,-0.07637291785611987,0.0897767825539259,-0.044324565687884294,-0.021890789547998127,0.05271824499605676,0.07020442382767078,0.07634909976357672,0.06263940186113884,-0.022666440972664723
89,-1.1311364310332648,-3.120887835441036,-1.1993447845312257,-0.5917614603974781,0.28514879828401096,0.5426869591294681,0.21564494105651735,-0.18588656068597864,0.2190017262671252,-0.15714180113094509,0.011945470348060207,-0.5376331282267922,0.21140515422209746,-0.28744206872618655,-0.013891016041092816,-0.17397263394071466,-0.07245567709425206,-0.13275851586408954,-0.1033173159562481,-0.12924619162134954,-0.004186619364057533,0.18876069047855468,0.11994175350730095,-0.06572018593681693,0.03433353767051692,0.1131481474024336,-0.06805472888102806,-0.23528078546763406,-0.18001296259666677,-0.32458008993429643,0.058099219312899,0.003355991401559392,-0.23484914293034762,-0.13933354397332687,0.04354710827707256,0.026454505073276898,0.09256097286795455,-0.020644106744834075,-0.11532368180447566,-0.10164816048315044,0.05175861812649794,-0.06934266293711816,0.08990462247581317,0.09128750505293222,0.055326101080994394,0.052203449519886355,-0.04193293231402857,0.06309048829029579,0.033924783914384554,0.12581818777563336,0.12895304453121276,-0.07901893810478695,0.11720436541761765,-0.017110116797848317,-0.02153612586009846,-0.01701986576405268,0.043898623281563576,-0.1570341965304748,0.016761598856275147,0.018169140358711283,-0.0296584202044136,0.05559448157290698,0.06099091142963889,0.014914591288430782
