,0,1,2,3,4,5,6,7,8,9,10,11,12,13,14,15,16,17,18,19,20,21,22,23,24,25,26,27,28,29,30,31,32,33,34,35,36,37,38,39,40,41,42,43,44,45,46,47,48,49,50,51,52,53,54,55,56,57,58,59,60,61,62,63
0,0.12473938821744639,-0.08804038915428651,-0.13802651752966205,0.2104847392962288,-0.06743541650843772,-0.005699516786014612,0.05027755913658018,0.10645970382875727,-0.12037857325629837,0.16677585516645524,0.13026809984839138,0.05640483041041814,-0.057352214141860376,-0.35783323204874107,0.016738530132972898,-0.00014617697519000877,-0.021967302004681225,-0.2094069371485379,-0.1131353755512662,-0.213369491671817,0.39796295012738625,-0.12417826012946889,0.11647905477814438,-0.16025708965797567,0.07647638439656186,0.25500277323338,-0.0028131256077357706,-0.12322918895856697,0.22136819660453508,-0.26981212738615806,-0.19764500713078278,-0.04191565461613759,-0.05340402244594383,-0.081384693799131,0.01812606943962734,0.23249658612103846,0.00647500078986625,-0.08696562510075388,0.01663030211719665,0.06483597451740607,-0.03509754917607658,-0.03779349280146571,-0.0713857325571536,-0.017874892999176096,0.15361246151814692,0.047294114341331656,0.0501191537807256,0.04187469619308046,-0.10360983448354999,-0.00016936748030576924,-0.00025894138673481084,-0.04724980667051928,0.023342181216720062,0.029939467255986132,0.009600593325017295,-0.07138739603524427,0.04847788608804977,-0.00290709790965916,-0.013944953796310836,-0.004477172878851513,-0.005826933548382732,0.008963799583206183,0.0035785467043239526,0.0031857639225745023
1,0.13057728212706898,-0.11959492885794237,-0.09156269914980569,0.15867731205478394,-0.03679008054735283,-0.040961245128210984,0.08437768597879734,0.09534785881501258,-0.1074620462774238,0.11480621383474755,0.09807424469393845,0.07477524130781335,-0.12160094660850412,-0.2765805862495761,-0.0204324387255799,0.00266777707189139,0.03439539778691831,-0.22767179521943007,-0.0891082650332749,0.005315330000302938,0.04740725013704195,-0.14117401643911612,-0.03928863446009531,0.026499160828400453,-0.010924513807969763,-0.06734393733344635,-0.11152285080001649,-0.01336758014886374,-0.19064373257130063,0.12044074169296673,0.03989136214789648,0.041058574324853714,0.09359046633832911,0.022606374792948712,-0.05499711806198074,-0.19359991700487766,-0.0010176707212644768,0.19480747015033378,0.005120301911646879,-0.1900668612469419,-0.009375650267801232,0.1072991536608604,0.11970108199710103,-0.009209582587253637,-0.2116508784039117,-0.09044103353795693,-0.23828569746431227,-0.06021385200995179,0.2907264122392756,-0.06919541766769309,0.009011561833686918,0.13556611448839215,-0.00677989861545097,-0.0709042277230634,-0.08577857053884148,0.36021759051043906,-0.3080930023897826,0.04703840523085889,0.12415415150144397,0.039475449484822775,-0.0018673696440679394,-0.0011660150675827682,0.0003718224002045797,-0.006684059610994674
2,0.1336493983724734,-0.13229967956854283,-0.05675213052418493,0.09713687943139648,-0.012527489164279787,-0.04327923805777038,0.12027692706276805,0.07829216751156268,-0.03672982173658479,0.04036806295443714,0.08852982868455844,0.09944192665640432,-0.09998200536440194,-0.19359918526870107,-0.04123327914318497,0.07209202750296613,0.06532337961450602,-0.2253388084280169,-0.11506650686411714,-0.008976829203232596,-0.13812840187348135,-0.0813303088344645,-0.03438396639804411,0.08112936253534522,-0.013647517408998572,-0.15185983137709896,-0.03362428254986309,-0.00010587843778700479,-0.1584059308641424,0.25065230580448034,0.11052719379349252,0.061354717899804435,0.12835511233527794,-0.007751050251494737,-0.045613518423888305,-0.21223145713446784,-0.0700215743941506,-0.05716135376097891,-0.05198620303979627,0.0215393231378928,0.05886146264491683,-0.04420139684926264,-0.0524039107124461,0.17001636746470286,-0.1952897241585477,-0.015820032570220605,0.12525990805820894,-0.017367104818620895,-0.12052372297467837,-0.008388813530177683,0.03538637581609818,-0.03958889217239443,-0.0464387402207646,0.08335740286318274,0.26406279707712643,-0.44895298340641954,0.3167097554793234,-0.04896906901115828,-0.21391133150753358,-0.09148770855984682,0.024895825153904864,0.04937669110948649,-0.004959450550463177,0.0018531251869665648
3,0.1322330339359975,-0.1460207693700437,0.009877875514054169,-0.03813468489042415,0.025431087319650186,-0.03742412259912209,0.24442526466225611,0.05323924508527521,0.03383914870193101,-0.03159641824754357,0.09482667435406361,0.1395647329885508,-0.042972347305390506,0.08246811039567163,-0.06946461933602714,0.1092959939110164,0.03840183352871982,-0.07365837681603697,-0.10475861973460682,-0.12968750408155705,-0.06972352002888665,0.09951568110481923,-0.12019846902306147,0.09505159035264177,0.015579564247919911,-0.04384453404081901,0.09364596898375051,-0.10313795947268278,0.06984888084743358,0.18566753880558035,0.11800704462017524,0.13282108518344252,0.07908087265212972,-0.061640015211951074,-0.05477309267794052,-0.00677554441609679,-0.0010245328344009935,-0.15732620896336472,-0.011011985540529347,0.30730303935283243,-0.03977051520877578,-0.2218704853488735,-0.026328428640445215,0.14438216930725695,0.09337305134051652,-0.06521840505113569,0.06414407710219816,0.06037015316936195,-0.13931757433987568,0.2902235367982034,-0.1738487338272473,-0.19974380431245886,0.17343698483631395,-0.17906887036404,-0.29827221830576556,0.25254887590304625,0.013019816088965571,0.010011155234162955,0.1665667151613616,0.07535364142291394,-0.11722798281242418,-0.10381480883591854,0.03363862449795505,0.008213336735534885
4,0.12816821966987776,-0.143836589274412,0.050403764956783004,-0.10896439088498111,0.037095967908809174,-0.017069744752350995,0.29463330650455005,0.05241997982103902,-0.01834621119043539,-0.0034329432391539405,0.08851421706415928,0.10428635568363062,0.0114381449898691,0.25142383800593815,-0.04250689551505954,0.10564910922391481,-0.022921553975190516,0.03693165814642754,-0.009208200404888185,-0.20168298228066958,0.1606233462139089,0.14643257076391625,-0.26032953248239776,0.11669429847226165,-0.0002608735056407567,-0.03733651677980508,0.045819503157777414,-0.0408618547627698,0.05837165401888773,-0.026855003457248006,0.019674071280815247,-0.03126926201951742,-0.04352446234888907,-0.031272229329524066,0.009406581035744602,0.10249818516792907,0.0816385506119654,0.13619536393302073,0.02546095688320263,0.2557039863192036,-0.0657206231895456,0.17249277727251314,0.1064762336269306,-0.11417271054542834,-0.012791846538316387,-0.016696472498747363,-0.16207128254724806,-0.028454982367704457,0.1392627383646509,-0.047361048839580255,0.06890147140815539,0.10503902394298452,0.025980858480264192,0.20422974158837573,0.0097079926942461,-0.18499634333825846,-0.1236071279939257,-0.01119575948174107,-0.042134841032760856,-0.0366864814686958,0.35891998007988374,0.35440412100558516,-0.046727850243754004,-0.0015889291273902028
5,0.13021337030771055,-0.135113715759441,0.07262344152086306,-0.13999651213991948,0.029108061209483144,0.0005455688853005583,0.23992958895491232,0.0537280460420575,-0.08548768562928039,0.00977447227644146,0.01295982460959258,0.011992081685949951,0.03044035361621554,0.17816414171309652,-0.007100089002552991,0.1243458396729268,0.003358187123414765,0.0395039527175554,0.06695673683452295,-0.09802347899735808,0.20443298962178533,0.0370506326226417,-0.14828631025967942,0.06241853316034884,-0.012349584416600012,-0.06960062794932584,-0.03249621303100037,0.030964770286707133,-0.053963261040726046,-0.1323465385441443,-0.09868747524545285,-0.0843465583843101,-0.02159708793412194,0.02421230526118795,0.055674867510735145,-0.039494705814468595,-0.017956911116287617,0.09088318243713348,0.02599596577045015,-0.021219145486159212,0.021964285186951805,0.24365940306368428,0.025481403816891297,-0.08587713574179381,-0.091800430290049,0.027473935770396432,0.03690761803365057,-0.05928333858581823,-0.024668888649970147,-0.12380765716951457,0.10096829258102652,0.03317852878709797,-0.04319619498362762,0.0303099006005361,0.08343381911663686,-0.088254662394707,0.07394379587795896,0.013318764190887029,0.05573584289592878,0.026673714776309747,-0.5459038665316969,-0.4895993538258448,0.06619962972511069,0.004956582780175436
6,0.1333541215056328,-0.11694808175411674,0.08411973316009844,-0.14388389760665837,0.011154814638937194,0.02028750474232357,0.12173016823442145,0.04523896112326564,-0.1619470227222548,0.0034604217601443,-0.10258672452915903,-0.10149493796849396,0.0609419626726327,0.0017879687426899937,0.02103400435387663,0.16733180477212656,0.07819032224887577,0.0227264993361789,0.1527903283753607,0.0782130343381966,0.14895349227001806,-0.09214520392112119,0.014218001594119224,-0.0019443681461296432,-0.03508328656617995,-0.0725846808990431,0.020476229079687002,0.044096096372327184,-0.029498384708269466,-0.12139200043825323,-0.13487154709309976,-0.048174163744385365,0.00037675869384276237,0.0950637929247371,0.06852774990154105,-0.20915998119942358,-0.09490813174290753,-0.0022544251788274156,0.012968186173876808,-0.03455315303269327,0.1250575326718174,0.17221216896379432,-0.08497225859809615,-0.06285510997248188,-0.018041758376254713,-0.013000582019277486,0.21762927496341483,-0.10442517691091571,-0.22849103155295047,-0.027968506595460168,-0.005584677578906658,-0.17407444266653332,-0.04520468876021376,-0.30492112947754013,0.15771916491124918,0.39979253669399656,0.21561753396649302,0.02689085244555021,-0.04998178136590248,-0.018657152633468514,0.32776453364714714,0.16877590130373082,-0.007403504313396731,-0.003444636105507655
7,0.13282670604067157,-0.08736672220880065,0.09771584597631247,-0.13639932198366322,-0.010373923216117187,0.04871328376128112,-0.010260993413202135,0.03583301555419133,-0.24716232173126756,-0.02441052440781405,-0.21955730591588193,-0.18626179766780504,0.08363586941034921,-0.1692826096253863,0.041299010390370455,0.2595208403536659,0.17759754909436393,0.011828894533034595,0.18377545057410483,0.21739533831374205,0.053071825737041306,-0.12405961254970296,0.05413825663070299,0.058079661352043274,0.0013215738106051172,-0.08711276023301612,0.1576054891615393,-0.011556677210035426,0.0771362771864762,-0.03931644544453686,-0.0898417649488196,0.022931737047837086,-0.03310139844885935,0.04518007728617888,0.02631639668131258,-0.24219889558605567,-0.06514711236992068,-0.13220968028428245,0.025707925798391335,0.19741373261979414,-0.057310063975476944,-0.2817415246515626,-0.10883313774482839,0.0773477039942412,0.19391853878001417,0.08455525373086736,-0.20073355570166196,0.16360422323026483,0.2730714984280146,0.013291974968768763,-0.05002295403523701,0.2055446935538798,0.0023051964277566346,0.16009470610586785,-0.013777603710245475,-0.11181413844743851,-0.054291433388408396,-0.060739517278706544,0.058158116301250354,0.006824465231774519,-0.058257477127071675,0.001056063802969279,-0.005649364915739709,-0.007660153499546441
8,0.116837593246131,-0.08941636267532639,-0.16458986376539017,0.2946121021505491,-0.049142943437447656,-0.022548634589928535,0.02315407264281849,0.05282103386213943,-0.1488850389437192,0.15415544799671616,0.07130965421821403,0.01654680363066858,-0.029118424723435274,-0.05288771578985796,-0.019380976606859286,-0.23184561308126536,0.005393366517262722,0.430178065900663,0.32352743410616647,0.15328702615860004,0.08415344411516262,0.269731540343945,-0.1945344350892605,-0.03760621867012568,-0.09463545233060622,0.2509229280917817,-0.025779277171148928,-0.07278777710087933,0.16936584642451183,0.16568731237475445,0.126999727143209,-0.039305875745920996,-0.12978722795511996,0.11331498822147584,0.09322561054513787,-0.14464277119612184,0.013963549102985175,-0.1799770013129699,-0.010778471860196176,0.04987924396275514,-0.001977938105601283,-0.004924620574532877,-0.040713042221013324,0.11055031674306884,-0.21076585914279725,-0.027276962321876902,0.03895842069218812,0.0013269966570773895,0.01297912690429373,-0.017797302347620718,-0.020864828646664977,-0.0003920886699935594,-0.04474142917260802,-0.01711748210369129,0.0642465529332788,0.002698997455624283,-0.038349139136260056,0.0228660768988338,0.01603630033715385,0.002516214471273835,-0.015246767354643007,-0.008656959110448857,-0.011093173488466739,0.0007397136536598948
9,0.12768650216069005,-0.11398014947944289,-0.12018607812047076,0.2239828473907139,-0.029441467848403118,-0.04535125686326985,0.023149333961638874,0.05676205933677503,-0.09502924526343196,0.08825997419802481,0.03494810295875973,0.026289464289710143,-0.08847048880470208,-0.07608162895217718,-0.0212312998377527,-0.08769483911600741,0.017943119794226053,0.04857340472759723,0.10174312232053925,0.18258213416564384,-0.14611212432179135,-0.00020856375337253985,-0.11852998465296588,0.09291656066968007,-0.07330176899548346,-0.16747282929940407,-0.07004102052141269,0.17628546737521222,-0.19731525796696475,-0.015442706292637505,0.0451667318826414,-0.13459193477592254,-0.1877318779500696,0.07997485177924545,0.10347008607109891,0.08677064939458556,0.07793301305452129,0.2923226648958618,0.04911504988335946,-0.05385290731354091,-0.06629079861203069,-0.05480225949057993,0.15683268184262528,-0.2622840672210786,0.46983485310701856,0.09800494319851938,0.024530256116919738,0.05336227341510356,-0.047658243460281774,0.0716646344757535,0.011888579449589591,-0.020823617745169304,0.11572974014756629,-0.06807790130759475,-0.2339409879128678,-0.06348461047541867,0.21839584323620426,-0.0649120627529251,-0.10408908873079813,-0.005925765413166322,0.004162407378971594,-0.01596659011561351,0.024777185249405594,0.007516475324110679
10,0.1338244267628344,-0.13395449470599605,-0.053510616040935724,0.08877329456727165,0.017588216540537882,-0.06336348572002293,0.08999971131322176,0.018421879827831333,0.09928672208983949,-0.10707902149425416,0.04529402267876327,0.10565598475439708,-0.06285364783973706,-0.10062154416091254,-0.05335824881946348,0.09381088148127724,0.10259343476662143,-0.051606747564502696,-0.022227711496922764,0.12025367935172226,-0.3762839040246965,0.05568376100151333,0.03379785872929906,-0.006276040118220291,0.011419670614274936,-0.06766693291941463,0.11689437761581367,0.034028042126981815,0.04928501277982629,0.0009114408001581059,-0.016977936276112163,0.010988934405271345,-0.07265235355940536,0.03802932175685974,0.04737243024202232,0.12337119645199567,0.01642656161399076,-0.3437151897607389,0.05857589893484193,-0.09722486402563674,0.14807145674721,0.2261491617097128,-0.2789960471751497,-0.25573632581481354,0.13584603118572908,0.055459226399634284,0.05348424918512609,-0.06606398315208648,-0.1391994641140491,-0.1268735319701057,0.08209501643009584,-0.010922970606808073,-0.03180099717967271,0.3299341603357433,0.09202185923998776,0.08315264199683314,-0.22577636501999682,0.05844238954073837,0.22416105725671256,0.06431967885204065,0.05750868903268923,-0.049996695092387175,-0.028088604899489847,-0.02217797231502189
11,0.13369101153618232,-0.14370430113783966,0.0036391891493976155,-0.02844821253953581,0.04270613477048161,-0.050720952829312604,0.16600328125022495,0.011320921793461863,0.14551747601994672,-0.12616930627446213,0.08266409556856064,0.1166584779784928,-0.045821661027230155,0.03163584888735262,-0.03212253351427988,0.02817424682019531,0.017105906541504942,0.028593295937487273,-0.05506929964629391,0.04778725235675928,-0.19200228033970196,0.023959881056383733,0.08023335986822913,0.011538185021862282,0.06421024001114364,0.022466633082932785,0.1716977212004542,-0.055247019714101106,0.20249553346497898,-0.07915591410225753,-0.027153122178549205,-0.025368442744829092,-0.04374741691017552,0.033942705967685255,0.0009297073635471855,0.06146847227708648,-0.029803221524519405,-0.04708993951641546,-0.0007334746672327417,-0.15078631194536782,-0.07319623832524196,-0.14533990196793853,0.2697035122465512,0.10061703524485019,0.06780727561468367,0.24875549552320808,0.17397010634757243,0.1311792600637316,0.12701099561518336,-0.21952687896787892,0.049155187167641105,0.1321301684482768,-0.16426898211336963,-0.4197213312179729,0.15122431053368263,0.00516672209397534,-0.19697252325190304,0.030897563780761222,-0.21917847215928557,-0.06082594704318977,-0.18878866515441217,0.19001825069484635,0.018402214026109996,0.007441289647800404
12,0.1318578907301915,-0.14469518178553056,0.044527067008616354,-0.10054146125868767,0.04517937014260847,-0.02734784523269286,0.212797637671585,0.018992473179454794,0.07916505996413825,-0.04892417805671842,0.08738150621718638,0.06929228559190709,-0.010865144118730352,0.1411799071069887,-0.0010614317827079352,-0.10335630123160759,-0.06618524718730247,0.06370009318048203,-0.04981134138401254,0.007652877708649447,0.015710397789616082,0.004610824536599049,0.11517160516032578,-0.06878320415083147,0.015237469812523004,0.09773820565045076,-0.03136544537447368,0.01331777615764751,0.049199907601547785,0.012373316754830554,0.030347506457988532,-0.01550286122867598,-0.028630024070416184,-0.008295811845373084,-0.018867676897837436,0.05073478808950323,0.018209517001788782,0.11609343077986847,-0.04450621227331637,-0.29569656300223157,-0.06573438483524299,-0.3533110691297856,-0.09698624520589286,0.1312684194821767,0.06006372016133843,-0.04990389063352585,-0.09446471345046019,0.03522694805327499,0.06784176672782208,-0.08196750563910142,-0.02731412504431592,0.10998163074750825,-0.14647723375151186,0.1297326857858398,0.07521065971479086,0.09477639256414791,0.1839868133447576,-0.041001662670494224,0.03716853822271223,-0.002121906920990669,0.43981594148806674,-0.46531278527647213,-0.034009776816285565,0.034444911175510254
13,0.13175250277806155,-0.1378559175596875,0.06946231182261964,-0.13680974155340886,0.03933889303957707,-0.0054293740194297085,0.18500564950006837,0.022976246416280044,-0.0008812501672718631,-0.0009533505077312585,0.027600605904989917,0.00436460568831222,0.01743809811989025,0.13628904905097583,0.015379956643055026,-0.11859082346618348,-0.07851982704994051,0.07312212632219407,0.01418891152327291,0.01356591372596841,0.08354174062122838,-0.02087190701572271,0.1215295367083008,-0.10463817369616976,-0.01495439510514715,0.08844326554789582,-0.15832744507906735,0.06013301394585478,-0.09369587190830606,0.023888661318855614,0.008600037663196919,-0.007000894767597205,0.01244231640921186,0.004762004187680566,-0.01320704908341489,0.005074800425585113,0.009682295026706946,0.037646209918766285,-0.025054285279541257,-0.3706981543908244,0.044787239260805536,-0.18574384129448634,-0.24114284205753736,0.004958621744680093,0.03863831348258176,-0.08971181679372756,-0.07843106126026976,-0.001135028807918756,-0.038123714907038295,0.13922328735768408,-0.04966920451128387,-0.044251227897210324,-0.001893734745184325,0.20873024988362898,-0.024191004365039168,0.04132416736430798,0.09747361574411521,0.002235555938584762,0.08160085528952557,0.017831090582461472,-0.3848532028751165,0.5366061492219886,-0.012110905000952344,-0.06667751213559361
14,0.13396207793790127,-0.12175726244681255,0.08234395749972583,-0.14948092840455188,0.02246617718574219,0.015072754050283977,0.09843208436353308,0.025005692038504584,-0.11264050826478261,0.01738926595043422,-0.06959126301589198,-0.0893884981184635,0.045847843419095896,0.018010406709106738,0.04412551895136794,-0.033650622178497,-0.012147993703371399,0.018453117731722757,0.08898737464407858,0.06249053623771268,0.06428841145998945,-0.08098317998569586,0.11530943698287424,-0.08907642322440093,-0.029555473656761116,0.016752956704813526,-0.12472438903726377,0.06639096076182041,-0.13104531361996619,0.00696369365804364,-0.027953190684223514,0.010969980268225342,0.009650716819252482,0.019296662278089183,-0.014682227304313344,0.06444365210301264,-0.03778309882320964,-0.15032519622408425,-0.005833617541568425,-0.2456924326399178,0.07986172361890745,0.07881943587737858,0.05823563982686804,0.036526301098394914,-0.11836206453767067,0.03054161402979677,0.1496604039288684,0.0738478068854764,-0.09462990738295293,0.19468612394717658,-0.05219213784960896,-0.13123343861471445,0.1839025632640796,-0.11558452644756101,-0.3123940974644229,-0.38699402104794356,-0.4736592194871688,0.024365022646029667,-0.13355029516349926,-0.0147328984680959,0.19095560164395303,-0.13754115538557865,-0.04197517713209703,0.037474318407970664
15,0.1348298160879717,-0.0904323043953843,0.09107510004793727,-0.1354748006165238,-0.004475130568428505,0.048596150899000115,-0.048031417682058604,0.01941210904640318,-0.23048280632605628,0.011758042774219435,-0.1746637801615734,-0.17451066441711466,0.061785114491242354,-0.13820632127035865,0.03913263694311951,0.08657839886032107,0.10317681089861612,-0.028004323353002097,0.0740851379812194,0.08093510197055889,-0.08909768439977803,0.0016979354163015187,0.018025897481654743,-0.03568079826705503,-0.01775431197985322,0.05900761574916458,0.0688651038775155,-0.08579125025879727,0.09506417680039815,0.16233995588379585,0.18806894731149087,0.11239156798785675,-0.01353875953323444,-0.04816990333176072,-0.11692998486624662,0.4292164000080516,0.1197019465983888,-0.04408481201205017,0.001421299118673362,-0.06711153532900016,-0.1393395422359051,-0.06531702006553283,0.3931651463638738,-0.01897229486116483,-0.0724756357966817,-0.26832242450469884,-0.0661592848927725,-0.31625495152073946,-0.16493401446369305,-0.11783561184852415,0.10169827680741156,-0.04580467165307329,-0.05531338952726944,0.08178203253638247,0.00882719751092607,0.06126693344765116,0.09121130714860118,-0.026956538233093803,-0.03285677726368066,0.00017592592799825502,-0.06692445894481262,0.012896588738533075,0.00998905393952133,-0.006005459034059413
16,0.12041221451022587,-0.08338564174144596,-0.15976546448506768,0.285082101193336,-0.025734485313562497,-0.03502688452663849,-0.05094154493737531,-0.0030817855067429914,-0.14771526873408242,0.09708847059581152,-0.1262903374774902,-0.04899686272728754,0.024220250634480328,0.3193101953866774,0.010800932372621724,-0.09512668763119056,-0.11598516362562147,0.10984890328502517,-0.00992081949702348,0.11414689778679268,-0.014626430679155089,-0.08783481996432956,0.021640790670369184,0.17101585774346528,0.018650203301075783,-0.043665338373341064,0.1321947133739323,-0.09369189663413491,0.10113575952295017,-0.1479410103266833,-0.11050158604070828,0.22496154177507427,0.46670744375648204,-0.1625266743674096,-0.39986368539973666,-0.013542590978221247,-0.11022411880850141,0.004506507725209788,0.03984387495249856,-0.07161935313411286,0.10176497752476826,0.03579146648911724,0.004589261905229097,-0.03377869685347772,0.03744961715811512,0.07831493362257722,0.05740973483383564,0.015063928456269448,0.007781311990128045,-0.10512209442467012,0.09037384855492958,0.018206642077868644,0.06873277811442247,0.09938662323059712,-0.12292871475415033,0.031572783724985454,0.062012324092453885,-0.037640964270611296,-0.05786899317680744,-0.0031866593736648366,0.012458246284007865,0.002918411849195668,0.006548394512761076,0.0044748172223173545
17,0.1297400275899412,-0.10752609705314235,-0.11545622334689698,0.21767561875175803,-0.007174985026919195,-0.05249004558262356,-0.0597063158707189,-0.009534736979534313,-0.04925802519565344,-0.006106428644760624,-0.10042155849003387,-0.05722797201153751,-0.004424370974595526,0.15620354554620208,0.01074481048456552,0.02727022014079912,-0.007054378663049813,0.004736928950079405,0.016838155529782742,0.08953836653104405,-0.11781760390188795,-0.018137582573283906,-0.005824349727339348,0.013218993025610554,-0.05766727813856739,-0.12376527663720685,-0.09972569250623815,0.21324813579712065,-0.20340599960912495,-0.2679515615165189,-0.12270425162177638,-0.030004328793688317,-0.03376110527419327,-0.1411422242241752,0.016092875703918444,0.27336471044797866,0.022992110128895477,0.14493160671907374,-0.03498708077502756,0.22538804667079734,-0.1013512950279262,-0.17593871668778094,-0.10620840524291678,0.18449453265840937,-0.11855965954571795,-0.14458794054438182,-0.08780117876585056,-0.026451061545027885,-0.06318182115997216,0.13432050731150044,-0.15161588371841844,-0.10079134605650686,-0.06730344077036715,-0.12596066377545878,0.4145749560088864,-0.03432026220049039,-0.23978499746897436,0.11465147964376957,0.13285562800347037,0.0028039833030959298,-0.015356278539837502,-0.004854946644032673,-0.020798774985826142,-0.014330311887042743
18,0.13495309898256067,-0.12437258235549627,-0.0531225122841793,0.09253351638141445,0.03177905350645266,-0.06949761585972207,-0.03382586792009899,-0.0409471026965015,0.17058475542282037,-0.18939639333422842,-0.03878141258874129,0.00029417358314803854,0.004245635239706738,-0.05592173278136575,-0.024063773424628093,0.1405239844023234,0.0939590164838503,0.004945227535710861,0.04124574686530532,0.04838896288523041,-0.1580027654217235,0.10431931979268862,0.036578631171528514,-0.12018766615954656,-0.01215592950635408,0.09030215853838597,-0.05514549582092617,0.06782164798236731,-0.01612112783415924,-0.2139387689701142,-0.16371730692851105,-0.03471467736798272,0.02469341519202179,-0.04111242816822035,0.025938964281380546,0.11240296079678364,-0.028436952838963102,-0.08979504690777029,-0.02791407522979099,0.05775171194253745,0.06190473293833308,0.2132995032016951,-0.023222813461656264,0.03336672110648925,-0.2676595349285824,-0.11711622024340848,-0.1543325026000275,0.01998364151274208,0.14732026086084393,0.1698325295479662,-0.1189031275424001,0.1417269166308742,-0.3464971645030803,-0.07297283254222606,-0.42663775110839436,-0.027275077537844084,0.3051670731256708,-0.10421176925400147,-0.11979328400938954,-0.01827373893243603,0.0046721218083146734,0.026086470210040735,0.018993364880317755,0.004032150862718326
19,0.1352810342611484,-0.1299406654382377,-0.005217825361013854,-0.011693288918535898,0.04989154235079357,-0.05526750361979686,-0.014702879439101518,-0.05267280292759322,0.23421865981032042,-0.19143093012476192,0.025850330632479403,0.024053781507210548,-0.010583496541122173,-0.0970442143572816,0.004592517518971717,-0.05130572556349795,0.01850659416453132,0.09290372386916787,-0.006916101613681239,0.13971747026382783,-0.09761918989234808,-0.04961429248708264,0.17017892620030728,-0.06094747125989686,0.05148268878952225,0.10311656755535036,0.16287773772972236,-0.07564261779203355,0.23160224258889922,-0.11478441522529653,-0.071801504247506,-0.05093822740380188,-0.00482955759243426,0.046650923021670634,0.03546420227116001,-0.15267886730335437,-0.019622298800682465,0.20728730839278875,0.017467846402725678,0.006375063506197341,0.006056007576878049,0.12868031367171243,0.14226015222859784,-0.0343406696486165,-0.10223644764737894,-0.15566757172262702,-0.1689572489286872,-0.0526640806073324,0.11049388517821053,0.19861745631534833,0.019600384618024276,-0.1975427474356468,0.5719362314486078,0.08002510451440421,0.1989388484254253,-0.01320334161536521,0.077602390417805,-0.012764935188133106,-0.09152857175152199,-0.01895483679490248,-0.029168767401212076,-0.056040063439371804,0.010329716100029605,0.006193523531733476
20,0.13511998362251876,-0.13035695390900584,0.03191145511024988,-0.07953206594656674,0.05043072836429793,-0.02808536443056555,-0.033265365478084584,-0.044885519653925426,0.1713650515473766,-0.10118727702606232,0.05138115635968097,-0.017317217537320906,-0.011769466901875636,-0.10266193242771392,0.04409303886489643,-0.23150701233039211,-0.11786796583727102,0.09966677489634326,-0.01797196739926818,0.1496309424648747,0.05690341996025447,-0.2041584235578064,0.1967542990979749,0.008195995140492102,0.0455342772463454,-0.025629922585770556,0.023432602766129094,-0.011862098749288535,0.013044885944167306,0.009056275628619881,0.006140440455156193,-0.03109247252615306,0.015092128431154983,6.849871801557772e-05,0.026542787810005943,-0.1501828868504167,0.022132102349968645,0.2181178761582522,0.00873008404516382,0.2976496403685526,-0.07635692515154133,-0.0046732867180236184,0.01151306986054626,0.07212066293960928,-0.0500527351394497,-0.005564465003606106,0.13385870753000445,-0.170793898448836,-0.19654240754407387,-0.26245643478027353,0.1435142009336248,0.05132958848769927,-0.13303906468188845,-0.07477176749682801,-0.24607060451972845,-0.2075949424997833,-0.00799265479424724,0.03840958537332912,0.44899275507174513,0.12412496791516234,0.021201108890024523,0.08002346570271873,-0.05285997599293504,-0.019327150730823944
21,0.13410742563092068,-0.12912352104435001,0.06104590218791544,-0.1312821183814433,0.04435067876499164,-0.0036352927591486667,-0.003334218888158212,-0.028614257077221306,0.06969203832056887,0.006246093566037282,0.03590529639742444,-0.03837854877881086,0.0022617617945770996,-0.01653084327087964,0.0453126061011494,-0.3028859020349136,-0.16473603804928522,0.04590067982760193,-0.04128941745846332,0.052226501577452275,0.03515710955317969,-0.13274074446854942,0.15382027444564933,-0.07209917089438907,0.012253269291272614,0.031529195357608925,-0.11758505706402451,0.023584122972405995,-0.11959747361207798,0.11593373987345493,0.09642175149007504,0.042631285254107754,0.037204731807220566,-0.05504176746545798,-0.018455413150016635,-0.038105720550131145,0.027166424082857688,-0.09776844719193444,0.006734282676018392,0.4060946727019976,0.03342374207731438,0.08383365213555082,-0.11851336199393886,-0.12164079764110107,0.16832066860620232,-0.028935229830168045,-0.11743041349277109,-0.06737311681011385,-0.030177949704768753,-0.026353013377310063,-0.04449451601467349,0.026738894105624064,-0.15700647234116547,0.08358790368272107,0.055421869021133906,0.21243265979487527,-0.1569754087850435,-0.0061987315910082,-0.536637396751623,-0.13763174069507866,-0.0881396424442683,-0.09364939916970771,0.06888777606719758,0.03306479563700919
22,0.1344354305242417,-0.11644507916824286,0.0794344952756104,-0.15081819404745278,0.03494140563938006,0.022750632387396916,-0.031472752868347637,-0.018833370772533883,-0.054302987741515804,0.07795822702327837,-0.03902328873724811,-0.0790355423477081,0.024036925713304347,-0.016313568852025187,0.053032614948670176,-0.24531939891989277,-0.11409359007638875,-0.03924709562427153,-0.030581648029344544,-0.02777568525175636,-0.0671593747216745,0.009406997400891182,0.053277646734941564,-0.09275861744430497,-0.02038424144288232,0.061046661146419184,-0.1656082008801636,0.03273900585947387,-0.19371517100764188,0.04082526356322702,0.06433840945110517,0.05959322230655999,0.02517078398998658,-0.06877424987137087,-0.06676026335782044,0.1555919949500397,-0.009311249957411257,-0.2887425799245608,-0.015475473651930645,0.09696896899673456,-0.05519580332628571,0.213828878375068,0.19281349446535345,-0.08029990659504466,-0.02778151019079017,0.24876086710020287,0.05156660442710634,0.2969947209634963,0.28940739868647447,0.036223272694329324,-0.04970873421723865,0.05223766468722675,0.1579895277742858,-0.08936582194126419,0.21463882913886814,0.025994832605586764,0.2790808396475075,-0.006066743617198773,0.32985824705821515,0.07046497129220673,0.0633849031333593,0.018167977778256017,0.06847607324391886,-0.0053647547835980886
23,0.13511606884999622,-0.0853516046435783,0.08708682410270584,-0.13333201439436043,0.010509753990594287,0.0526625695545248,-0.12199809630429573,-0.0019680169526402466,-0.2081015895379726,0.08204305574050164,-0.13607050738364138,-0.1399308378695075,0.03810225609153108,-0.10391079968577374,0.026317405094363144,-0.09260748556252135,0.005609836530210854,-0.11677747002142619,-0.07534883446133239,-0.10443376823116753,-0.24723991460960726,0.1732036893389044,-0.07793159786421708,-0.050636482314232234,0.015028227361344779,0.11073917373872867,0.1338774637509322,-0.12653348765144823,0.17299305961772474,0.07131175636152032,0.10699508753041174,0.0399040369523661,-0.03955734651828248,-0.015479652469518893,-0.011279342047153893,0.11102945992309923,0.13355478882740407,0.5181432881335928,-0.04657306356990912,0.023228291456182687,0.1868489585124521,0.11968052029647677,-0.36648085615880843,0.05419229079725127,-0.10114956581053317,0.19017963585790731,0.12763187770222487,0.17218221376511939,0.011323456946073368,0.03396127342271108,-0.04894333836305149,0.03363846520067096,-0.021054838903573896,-0.03972080267954622,-0.028771127541763454,0.01554956500965627,-0.03704149040053825,0.0025209440576131493,-0.038017728946230456,-0.01382623700339599,-0.0283006643505032,-0.02384711872986711,-0.051553132006735475,-0.012132198374828276
24,0.12508205164436756,-0.08040433273335391,-0.14140685243264206,0.23046717069359135,-0.013425999076961171,-0.027707651919149052,-0.10864481653765484,-0.04976551886345238,-0.09981212649110678,0.030112787279198163,-0.21493531751944828,-0.07437117504350983,0.07105233106867907,0.39092786371237176,0.032011222188330066,0.0020804969298177873,-0.1172613896307681,-0.15921789613503734,-0.19922824218175753,-0.12065725011220702,0.0681828246972918,-0.19003015944485166,0.20760176751597503,-0.01624655768417975,0.11095149838155136,-0.039081821561635505,0.18146208148369566,-0.10074149531218465,0.15116855155129647,0.22504932090120122,0.13692542430165297,-0.06177351091782351,-0.22339626239761362,0.15888659266889454,0.2237853564456227,-0.14216419268195404,0.0658249854338975,-0.08187252085304565,-0.0003651598100872164,-0.08039690941337227,0.01991381521715624,0.12550702074499315,0.07900958668162297,-0.12612842285512052,0.04785878759592707,-0.07376035963645447,-0.08902071988778545,-0.039083684088268233,0.02781004608688395,0.19747968244066447,-0.1107908325444021,0.011578945166611176,-0.19811726113292547,-0.09038686681944619,0.046375336891677416,-0.0958911206868778,0.015643083365619023,0.006205124502897643,0.08630063366136087,0.014537960574512024,-0.0033642455152755324,-0.015800965795654376,3.7604045557998456e-05,0.005006017314318378
25,0.13186064384063811,-0.1018881036458108,-0.10088256568210953,0.17179504120261282,0.011971626534609899,-0.05275472387568875,-0.13390741230939698,-0.07358466649110551,0.05130944193766644,-0.11331812263862602,-0.17087438386280507,-0.09542282577815918,0.06405575590456906,0.18529860806645188,0.006027168772273106,0.15664483291683728,-0.0010675088506320596,-0.12716289789675744,-0.05785515317198131,-0.13063662532358297,0.0331150742098619,0.01852599486124823,0.030700872237475037,-0.10183795495368364,-0.030998264302819177,0.020310694314968788,-0.15632859245517594,0.08835521278818392,-0.12317903659997104,0.02877200325201687,0.045304991748665785,-0.07193609339063184,-0.17600306250110523,0.0296488667937833,0.1915505787598549,0.010696822956594382,0.0035650778033750226,-0.06341429455362871,-0.07752229696156854,0.0737371495710518,-0.09835633720000239,-0.12480015720633998,-0.03989295601214084,0.22250484217020106,-0.17004263275885126,0.14489585317492482,0.18540535473136668,0.03722177425599536,0.014599501553769208,-0.3442410028429574,0.22562124858691732,0.022457621810103093,0.3452680346626714,0.20145304498275252,-0.18669302837356747,0.2111639035080477,0.020356147684249926,-0.057023870644811354,-0.14874502725133104,-0.019164055812514805,-0.011586988346413946,0.038245783992130855,-0.0030336853342306513,-0.00221990966440061
26,0.13277219302229548,-0.10788778142495153,-0.059686827059765,0.08417423095545486,0.03774705578556543,-0.05646826678735876,-0.16226674670082464,-0.09664163004740879,0.2052502594065617,-0.23488372170163782,-0.1289538521867201,-0.09434712006295384,0.05844580478154133,-0.02160345115319185,-0.006208142608303787,0.22963651506307,0.09708271432782045,-0.016453743794660296,0.07524500854594585,-0.17292481056897974,0.11641898333306389,0.21438881774013258,-0.10079109521050678,-0.17549505064319207,-0.054149705806229936,0.2715668616254485,-0.2586147014644309,-0.0499987753710091,-0.08104066118623374,0.1713523561752101,0.07609380450158568,0.11070682276564095,0.18127573139296677,-0.010159546409353737,-0.1752118580078566,-0.1271836524961983,-0.02437928939287816,0.06668366726031327,0.034298734018151304,-0.0338384277955866,0.08996209664872189,-0.05664447600813873,-0.06837763465086927,-0.19306554149842192,0.2972533792818036,0.00024550389754457447,-0.14391661406433243,-0.09315507065160988,-0.040767185945838696,-0.08837051400351044,0.040148098781191195,0.02045487208952357,0.01722418669192042,-0.26481793079251564,0.1282457422841331,-0.159608850499643,-0.06061594950635252,0.027088679633491274,0.08236022551316677,0.01431339467635382,0.017658673331349198,-0.02775428216211176,-0.0017140713350327907,0.003693736672556458
27,0.13556555215284996,-0.10966987935676223,-0.019609140723700732,0.012066746326313228,0.0460642107189555,-0.04161288537805301,-0.20558200905409474,-0.09075021198379178,0.23196242460025265,-0.18656620407506203,-0.041460556627065555,-0.07734731199552325,0.027412109225085,-0.15121526923847425,0.03137021933586034,0.02100039449337137,0.0015926242952794493,0.021393967515756757,0.06643546426880814,-0.05142455024440811,0.2097602934098633,-0.008192772033550344,-0.1697142127326165,0.13742207706225856,-0.01664134136297693,-0.06490777208536906,0.0031998036944182818,-0.06457178349861789,-0.013848794354762162,0.006988809603649393,0.018859723441521162,-0.015102434756801158,0.04142237302565063,-0.014564506156892185,-0.040418130742382596,-0.06416083806239808,-0.009038147652204823,0.11432579412425564,0.02193796976468128,-0.09541492487503567,-0.07124709886701443,0.011470544923470799,0.29594314680980566,0.04167214220978807,0.013513058991323101,0.11076004133735046,0.3378567166060893,0.1959308671824307,-0.08659871717522605,0.26515480488488896,-0.17728003400021264,-0.052560713589104455,-0.2638171146425024,0.41499130230740655,0.08378160901527847,0.14152654914815474,-0.10664239111863623,0.04226539460301262,0.015864067659373027,-0.013939443139596538,0.005035259604183842,-0.005140571821139334,0.011106836549349186,-0.0038082183104009015
28,0.13429979889582888,-0.10750432287756632,0.015792501982009672,-0.050388281520031046,0.052007222425472774,-0.014118106993350853,-0.23279835614487385,-0.09676763653321786,0.21377728830871084,-0.08477665248146847,0.010300085729434982,-0.06336333639161017,0.01327540596252087,-0.1461716057687057,0.04275471196110379,-0.17275636293798302,-0.0884504890322563,0.026566353068556856,0.043246380109897536,-0.07291999551000072,0.2574692053136367,-0.1099215951033945,-0.27653489182108226,0.36187976089989343,-0.0066542308695841865,-0.3083470001533972,0.17486249630904444,-0.0208466320602513,0.028884884385321274,0.029690463821095463,0.02920543630200756,0.01456139816429361,-0.10149724174734491,-0.001961407497518039,0.0040947309751381954,0.23084025413670084,0.07816320920485463,-0.19344499615636282,-0.024774274706932508,-0.19069502305277572,0.07245786548518987,-0.047365233666036365,-0.28647124240285854,0.013751853752311676,-0.07303609729221594,-0.05229655270524035,-0.1726708709451584,-0.02747904919178313,0.06513936801072795,-0.06546510575683566,0.050711119895137755,0.01862421806564063,0.11689793143224858,-0.2327382197996928,-0.01978980350170524,-0.029802297094505464,0.066492443963922,-0.018096558394974448,-0.05085445359205868,-0.0057600294920146225,0.005742848689959036,0.003554625282324614,0.0032161147266085433,0.002877082937334796
29,0.11799035493296184,-0.09889536714996201,0.05985185189764398,-0.125842257546859,0.05174442284696618,0.024045698346229643,-0.36926885042750957,-0.12516975437762157,0.16611956342273654,0.4915387847237776,0.23978627694859367,0.28965233639511623,-0.12080684566301514,0.1827422495855826,-0.0906904927026685,0.36171994332810453,0.1800180043286789,0.09966242625006312,0.10128311448835214,0.18202060121599734,0.10751933544022875,-0.12710953641720935,0.1547021772237006,-0.05037690590677189,0.011881067096931104,0.01744909184609334,-0.01726505050014761,-0.02042940300559562,0.0019332027686386616,0.09456663063317922,0.0838909993917118,0.042592283267565034,-0.012361699181343944,-0.0183119761442391,-0.029861613260878772,0.11529468891809722,0.05362928572721615,0.07150776124700248,-0.02411586807565886,0.014078822083398848,0.023615451511061522,0.04585697893477697,-0.05032497464929213,0.0013243843735458519,-0.03190248278688321,0.05029827374268547,0.02444957218123875,0.05112548256648169,0.01865186194592955,0.004447566191313384,-0.01824093611888833,0.009012764319811406,0.00822259104274961,-0.0020517040589852487,0.006308164877511596,0.0013683983226424334,0.006187816746490424,0.001984059583347344,0.0021630805321251056,0.0013555871185867603,0.0020474355301810833,0.0022173299717295203,0.09074143486953107,0.021918429682919516
30,0.13360242979499765,-0.09839474910950384,0.07320511392039643,-0.13335527805334135,0.04103577205760765,0.03426372948363158,-0.24090436093933046,-0.06420819305829539,-0.010413200182683418,0.2546408929345335,0.04336537917033103,0.029507814410129878,-0.02777250895573004,0.02722823056199373,-0.009673179680597298,-0.09610013441845855,-0.050933961168437236,-0.08415472878184185,-0.0818764293166865,-0.1273921572163904,-0.14495727268534378,0.1608012785247368,-0.11205286398455687,0.0006482650724270456,-0.021039639861254445,0.012718574831801388,-0.0023237738671209717,0.02245569318526891,-0.006646460625044676,-0.1487787104318568,-0.1356535228648329,-0.07114980487369608,0.02724430517356785,0.02367726762281608,0.038628097304647876,-0.18647728787155973,-0.08919058126423515,-0.13256536590689708,0.040711081819531106,-0.015602296318540959,-0.055924673425804164,-0.07350363835636678,0.12439270587044259,-0.011564250543878378,0.063457729596717,-0.0779434522040537,-0.03859883429352212,-0.08701241860872531,-0.02316318030615335,0.006085447593800838,0.028203376928929928,-0.01910227038781656,-0.016186490326979497,0.0015121488234638714,-0.018001484743312476,0.01627926662649955,0.004688178860389594,-0.017738831135376838,-0.03429365376354837,-0.013302781490104332,-0.04330445227907091,-0.03826272037698085,-0.7171162735302097,-0.1918447873000933
31,0.1341432706170133,-0.09391542745524564,0.07706220916901028,-0.1310670226609342,0.03587033580956558,0.03876162639582232,-0.22921186946605968,-0.05346220979045674,-0.05624753205878538,0.21388512918252492,0.007453251553087406,-0.00839312331506758,-0.01334228941188022,0.0038057445693766116,-0.0019734721116017374,-0.14394266455411062,-0.07497553517161461,-0.10492747572356062,-0.1088451880103039,-0.16248971764223774,-0.20209516231882443,0.21131769124053623,-0.1555652919105605,-0.003040324752571294,-0.021753068251659333,0.017259017850147856,0.020365246952452065,0.035173743130282514,0.036911091703255655,-0.1873731809878134,-0.1736179540643083,-0.0789863465949063,0.012293310328497772,0.047647745986910184,0.06732613700164158,-0.2347143165201273,-0.10841689557780475,-0.0792468849011351,0.04289686595123534,-0.07085079296334773,-0.04282479509428494,-0.1255397315569053,0.07047630308480377,0.03193852033583723,0.04239987021480923,-0.12142829420533369,-0.03984618677428839,-0.12926922544610742,-0.0761342573329754,-0.024391259004626013,0.04158334063177724,-0.006781402184573404,-0.02526323473574707,0.04440732068155043,-0.04150153946519779,-0.05157993607499362,-0.06489133429941321,0.01810571258834749,0.032016890192485964,0.020234358615516257,0.06073973787392458,0.046347247745351525,0.6153753174079064,0.17620204879342277
32,0.11926560557662584,0.05747605913950637,0.2174402152199322,0.08929528991488309,-0.2258590929876751,0.16914163028289966,0.049786886545053956,-0.0820792208571997,0.03640678271591096,0.027598731372050253,-0.21946893288655187,0.045258142152989775,-0.1559225176643059,-0.06741807517885257,0.04805523376051582,0.06391515028809526,0.05751601643913095,0.17225233571669318,-0.20466952598821955,0.0035610646740457663,0.033631588731116185,0.03587030801221283,-0.013540204013866158,0.1085580284304995,0.18827061461141636,0.15584585881905613,0.11200980198109639,0.2052042738971887,-0.06287165857335036,0.1058732726756001,-0.04910504633033419,-0.1618464808824026,0.07204492841661392,-0.15168743406542853,-0.014938292987151908,-0.055604459335513556,0.12036725314135958,-0.035170721706160896,-0.0785407773588639,-0.037088335730026095,-0.1478310114580953,0.01240700875772087,-0.035496361196916126,-0.06602199356744154,-0.018454230603989402,0.03969529206040803,-0.0430940851566131,0.046233852714483076,0.08660896692125022,-0.0857177231851298,-0.009095883044796145,-0.20684950703893695,-0.04030514033744098,0.019419414431984278,-0.08734860797006117,-0.029226573649795196,0.08687910266361332,0.5757086907606481,-0.0770901028921317,0.03090714849522533,0.015253953095209313,-0.004796891652923033,-0.011507883274102182,0.024578210849284188
33,0.11498242467056685,0.08316654143283694,0.22195303650311737,0.1168269419615653,-0.24624474336789356,0.12385921747154219,0.0995509683532123,-0.127613874707646,0.1099576087675213,0.07234456992888848,-0.16901079836343963,0.1040305886944371,-0.0892644599827426,-0.05279546989311717,0.07966941385179525,0.02223772907343723,-0.06354199236145136,0.12152201537521769,-0.08248644211478368,-0.05879612397962763,0.0050758937225076906,-0.08160702165264766,-0.08902257325981787,-0.005853684458238638,0.07334414754314686,0.1325722657555371,0.1147424343740929,0.22342960150000324,-0.059558699897834994,0.08203892038253809,-0.1262952710974013,-0.020815194221774747,0.03314438432973223,0.07314930944592939,-0.028892646143414472,0.02719812183016114,0.06438080973996133,-0.0067406276255616016,-0.07652266136730171,0.0274441884136961,0.15271491033928325,-0.05730579747258427,0.0760454082036723,-0.042332357911567836,-0.07868633794782079,0.07164855162829883,0.05060174202983762,-0.12467086926383732,-0.24608937360749658,0.12514717831339645,-0.13807850303834054,0.4840701666724048,0.1636602153936892,-0.020588905616724665,0.0828832831573314,0.05524164100433308,-0.051768495648195384,-0.35926517604140873,0.044768350209685503,-0.023156145840931702,-0.007426390354547507,0.0025160290698386517,0.0053936202948764445,-0.02234042720310065
34,0.1161052211580863,0.11461198596188395,0.18585875735928264,0.09666367893160258,-0.23344308389773044,-0.02985263112755425,0.07933664989883771,-0.1686283191093572,0.04319928898583503,0.037689766811037646,-0.03593041181647789,0.17626537665115796,0.14553856814558966,-0.06040312480588971,0.07273290408416828,0.13029344417249686,-0.2876021971053563,0.07615750178543572,0.18949524952300173,-0.2073996237193128,-0.21846683065744155,-0.33205355932331454,-0.12170942995538525,-0.15499882803587103,-0.2836512223244117,-0.011035887559431239,0.014429404803915122,-0.28131762416281225,-0.08307414624723997,-0.21224193860683338,0.17020702911721175,-0.025148627224221176,-0.12338531821604556,0.1573997844729403,-0.17696374882513982,-0.029274137093825467,-0.0029136233466991596,-0.004626262693945893,-0.06852387129175991,0.023855921674718165,0.03925071250570547,-0.06135719055746998,-0.013984347583794132,-0.006904865894719427,-0.003046859092434318,0.025804803709592317,-0.019884379387787893,-0.032662819413885574,0.11475608648943242,-0.035510762531304224,0.005410487757842614,-0.20043035237171927,-0.06669067955421804,0.02664046405223805,-0.03394083567462006,-0.025600597503648653,0.0117240529577025,0.05624252362447546,0.010245082974084857,-0.021514252854309003,-0.0026487489392042485,-0.009556788245250872,0.005813662188012825,-0.012047578631157043
35,0.12277731602967785,0.1512253307065797,0.03302558111374883,-0.04111064014291206,-0.1294074317701993,-0.31874182278673563,-0.02051375377414934,-0.09904828283148502,-0.09276007691817607,-0.014185819803630945,0.07749849224233743,0.12020564512146943,0.283186831882489,-0.03759523401066776,0.11119488644465012,0.058908383831609054,-0.10533714501595784,-0.027151878355674695,-0.050472430734059534,0.12234650172561816,-0.0038092147729357623,0.05313019262268236,0.012547853477492429,0.048194608037254415,-0.1511843407604636,-0.016063025864450367,-0.03818704693068356,-0.03836605215932544,0.06743499790494441,0.12275741292854375,-0.08830821141955329,-0.07928433449015684,0.14250308645461227,-0.17046669073891177,0.20042917358477638,-0.0013141241787013765,0.0003756563538616711,0.012709152660821357,-0.0234347562117651,-0.03631122292432938,-0.07877743838180183,0.01506230455784166,0.03104907559987874,-0.09609054540628612,-0.06451903756234009,-0.030859720884213807,-0.18275257262858735,0.3001944082749312,-0.25025602444088424,-0.06975497038278503,0.019032248267464913,0.03761583534170501,0.004056465522902147,-0.02177322580943032,0.025567057219640393,0.029705192357977965,-0.0013594121103049916,-0.029944426030515156,-0.0168529204620744,0.1277661953434197,-0.030747650873440044,0.03605676454563628,-0.14252875706397686,0.5112646089510909
36,0.12286652780310085,0.15105132343549033,0.0028476749399135347,-0.07031955456385762,-0.12885442054682025,-0.3346401240345433,-0.03930776102897798,-0.06452651459799036,-0.10348432543210727,-0.033179909007600254,0.06089309492843574,0.13713743529439032,0.20118847164693066,-0.020231079941613633,0.16480045029613866,0.018026543011123858,-0.022315618434030623,-0.004784188272015863,-0.11970264073054099,0.11869461625689877,0.05508328770570796,0.09070526906777758,0.009115499415553827,0.027990499770653446,-0.09270873076256554,-0.007411740011970452,-0.013648604519630684,0.025861143798880163,0.046885606041187494,0.04378914925115299,-0.01085402927951816,-0.02520644893572474,0.14211848114366668,-0.06064114262275011,0.1768768523247278,0.016765713514524203,0.05207499534203227,-0.0036041147961672904,0.03531763650186977,-0.011254261457152144,0.04093344211900228,-0.006628627252860935,0.02951586285602103,0.00985501033121186,0.01079084424501244,-0.0015375152710778578,-0.02825997279323302,0.04610782510250539,-0.027454349761891372,-0.01034617271221816,0.020053912228763057,0.007037482687778415,0.006083741145415829,-0.0236035949802762,-0.01873466282761882,-0.012502898602699736,-0.012865064894681519,0.04857640550888109,0.0004299683738953619,-0.12097761087379387,0.04332040463469594,-0.040010677002352446,0.20027580392332953,-0.732303928472696
37,0.12247963196628243,0.14563050886679457,-0.050628724964459734,-0.11380825489916263,-0.13728021480197888,-0.30048746439676677,-0.06835009128439581,0.01333168751940721,-0.09200896060166311,-0.07468858584206575,-0.01234975412846675,0.18521857382303694,0.017998152369067495,0.018010752010509636,0.22195543895975559,-0.06987238079451162,0.13777381805014563,-0.00013873231683775452,-0.16618318483082611,0.09816435661928893,0.12617923459928504,0.10046964171195098,-0.05777481340625518,-0.12838657771691472,0.026173711514781574,-0.0815037485691157,-0.00984698390943281,0.15034496570988676,0.03521678917482175,-0.08281825768595263,0.07614835961358962,0.12190436502748307,-0.012640993960405758,0.09341514869931816,-0.07877235575422895,0.0004467027104409285,0.12222045861870139,-0.027918769453141302,0.07586586184169093,0.0084817022495767,0.00248447603447563,0.010621026581703052,-0.08117117955664481,0.10064498894942,0.09084284786247107,0.09731028938896569,0.27116299325418264,-0.4501977659027677,0.3464908233248942,0.1229038040880443,-0.044801724944097204,-0.020958231265824842,0.0008966843343485064,0.016111234671291358,0.00891202566224153,-0.023213297196770295,0.023775928180397574,-0.011742358512583345,-0.005882028472118092,0.048664418873769044,-0.015904156117298784,0.0057069180501696515,-0.07512492752150715,0.2742399488092676
38,0.11981568511382636,0.11554839755640131,-0.13696010764251978,-0.15760106672002278,-0.19301697219407962,-0.06862444958427288,-0.09904230091122708,0.23323980147019166,0.025873164721679134,-0.07375957821412348,-0.18631326706613363,0.22232121864912222,0.014928515675298766,0.07248379531051648,-0.1572045744305807,-0.20151436967621122,0.26290309492799063,0.03856938316848258,-0.060283585929314,-0.019412039273269774,0.05552027492117658,-0.04567136255475364,-0.07880348606319336,-0.18658602949420267,0.006810279635239808,-0.08828260139424679,0.05394251145886311,0.003946289648374992,-0.028019014467206324,0.039848197441878716,-0.1173821896507371,0.12758008547843466,-0.4466510538414724,-0.17021204723357292,-0.34291478695815963,-0.10400150980709338,-0.1681422247940334,0.0271166949452126,-0.0952023758777387,-0.007558331677196772,0.018757105470001784,0.04747558552157992,0.05974320615544493,0.008730661580280859,-0.025996346994430847,-0.008497001922519454,-0.1441127275759303,0.17287471111423985,-0.185875348204196,-0.045336399466391716,0.05662570482990159,-0.009070856711438563,-0.01904228314871992,0.004825728852053748,-0.015016840008579127,0.011609792065965005,-0.0006331170197930169,0.005917480980330014,0.0026535681741591544,-0.02754996348358779,-0.0037743755558120873,0.005508917451682929,0.01046123682743097,-0.056730969299950966
39,0.11909437089082625,0.07859862250518028,-0.15278720197920911,-0.1496383738800612,-0.1946006202587119,0.10284582081725363,-0.08379504177453827,0.31186605027016195,0.07617886257163929,-0.016864738222508883,-0.1818927994564958,0.1532522818901807,0.16953322111992264,0.004373041011274392,-0.3615162182135076,-0.11652276859511575,0.1737055449155433,0.02614565646194202,0.08880967914103945,-0.20879038482799017,-0.08786560262058997,-0.17604703479764075,0.1300997558957975,0.2679478383459203,-0.1425415565922322,0.07897909457933014,-0.20665767920669897,0.0818357950877682,0.15152212953539332,-0.010086602499781716,0.07257194302506864,-0.23560588065236315,0.2717097205509371,0.13407583309890075,0.11536115616074548,0.07804533724514683,0.07619205427965747,-0.006884280696410727,0.16321982184916686,0.04185621863009348,0.03669869155049183,-0.07392216778035363,-0.01824113527295849,-0.06424842416613934,-0.04932467026641768,-0.013440660998289194,0.07126724977626205,-0.033628089574242126,0.08274496820055238,0.0009723347545720282,-0.04565479359369015,0.020207598861981632,0.011689862341622712,-0.0016335936639208792,0.011308581111965102,0.0031872854288605805,-0.005118921167659399,-0.0038584805922384086,0.0070343185242680295,0.00785219946001664,0.0021066797809196,-0.006816705905623804,-0.0023173552589243057,0.023330607478020404
40,0.12331941339715558,0.07185894306546826,0.2104780960177072,0.09155632557090213,-0.19070222040830961,0.1529582994644948,0.0020399902643490225,-0.05338555272687858,-0.009070142029293803,-0.04630955354241741,-0.07173693249935738,0.0029904270787657634,-0.1459613339587843,-0.017563431979008805,-0.04448543665867782,0.005511169702971289,0.05847151400320923,0.09605749382493747,-0.18763651972715964,0.08856688550808879,0.07038058730320443,0.16106645499680353,0.08236889415615746,0.10447952543284628,0.10928695859827103,-0.06553224877605243,-0.13321576468372445,-0.10923006258895834,-0.0048658399893271725,-0.025667350742649434,0.08407447018571002,-0.08629792557294738,0.011897750860178032,-0.0823295313997804,0.047436182143873885,0.0015111740078933827,-0.08049113927148431,0.01135227316780587,0.05055936404437275,-0.023350297737314216,-0.08942841623983791,0.07049339794592863,-0.0600884235663127,0.03270971551775472,0.04542668309870068,-0.03701843901543907,-0.02952407779522044,0.0878441972694809,0.12283403929136702,-0.07318215659370526,0.12178353191779454,-0.423593397927552,-0.14909336799386266,-0.027965234032350517,0.02876680701910231,-0.0017449258012116296,-0.10416728814295512,-0.603273170366082,0.06407529819403021,-0.0366570351757889,0.000915017093303494,0.004285024520102265,0.020250483538144216,-0.01216335107686925
41,0.11774445918868631,0.10943803131577023,0.21450113275746455,0.13310864540595985,-0.17983894342338658,0.09107633542207103,0.08108295966860085,-0.07840192760487413,0.1397962076752226,0.05815192019352886,-0.018533791127032528,-0.012207135777400747,-0.02970022670771466,0.035862127933370576,-0.02164404307899633,-0.10075907186884737,0.010501027393294414,-0.14226182379037472,0.2042931113442914,-0.052554034605767616,0.021777014606834517,0.03953587079716854,0.0491633741709554,-0.057860140822873427,-0.020192558046758943,-0.09464413966527875,-0.044577646022446904,0.12101598803743399,0.09714295054764807,0.08271404465131249,-0.09858481462248551,0.4007311304719376,-0.021774176621388808,0.08331395017779501,0.17748722635464642,0.07544006367604408,-0.08742693529538462,0.06764748089514797,0.36027730275900255,0.011198459492686302,0.10711487473465586,0.11436361077832793,0.027525590855905002,0.24864920594749193,0.16437770068977553,-0.29588990489674166,0.08404407534449986,0.18181837577218438,0.07083535647415888,0.037601413086683945,0.24056559277801517,0.08349578646144122,-0.025534943555754808,0.0021417333297365088,0.019537806216963022,0.00038942805674591074,0.025136351530720927,0.15710638565811522,-0.030562890309216634,0.09002869302063353,-0.0023170613329740464,0.0043304618875629475,-0.016432143614713998,0.009746496585123242
42,0.12121314846654369,0.16124688628022557,0.14457583176720543,0.09421327055822563,-0.0379132794729342,-0.09605434321289004,0.08006297866475769,-0.03183562872977626,0.12639932008863422,0.09529853182233038,0.08191943272344017,-0.16094254992377144,0.12460574279690347,0.05065536193054919,-0.18042008845938892,-0.06365338034549083,-0.010868354925399193,-0.26878006664145565,0.35167340969386884,0.011015155413736488,-0.05654866167260126,-0.033796011380272994,-0.05863969069790086,-0.09717195661640209,0.2206024858140217,-0.06655850791291126,-0.026128726664455176,0.11189118836669318,0.19281146497311735,0.025290190317689483,0.08938585203240723,-0.0460509092391761,-0.0036323777485666843,-0.31495086245326015,-0.05472130806667752,-0.11062635308383108,-0.011989013725199966,-0.007441583368674037,0.02385321884928303,-0.07702918795739698,-0.41830486328643723,0.053414351277264654,-0.13375515571802368,-0.11044971958978753,-0.06349539581559666,0.13573519981956256,0.042681143115370385,-0.16303705998700588,-0.0071094681232262424,0.05277859966688739,-0.09465582867563607,0.03772426103493288,0.0364715283154506,-0.03591577341517156,-0.024166756275221496,-0.0017632793591897955,-0.0025620660623285885,-0.04043817454254951,0.04476900360516506,-0.2657334436134546,-0.0007394050857679191,-0.00958131536143178,0.015172223428581572,-0.023265709871718693
43,0.12121114992577922,0.18346678194322524,0.05830527417064346,0.02504200270237013,0.05737186712824676,-0.2572686958377961,0.05372654659341359,-0.013122376768105126,0.03870079031567841,0.10492511060473465,0.07511708946310933,-0.20036391582432508,0.09349966686872468,-0.01238572866045067,-0.19782820602187687,0.03145974771361223,-0.04931138109484166,-0.017690682385599097,0.05943366818853284,-0.021563063166723448,-0.04765032277561826,0.012588649570668783,0.046045890708764026,0.15959177176104172,0.22795506355235515,0.0915995143339374,-0.03198658158827464,-0.05907647128931404,-0.07953753747765772,0.0999876526796972,-0.132305833998125,-0.1576888091591191,-0.12946566017961403,0.03767116523993788,-0.18661967835636076,0.032834480574954375,-0.07191801525667749,0.012988682123298893,-0.12033435969734786,0.0338960087793182,0.05742639607108137,0.004205379245604865,-0.009858366961056297,0.031452527456946405,0.0410099242291886,-0.07558945349370003,0.0933582022198835,-0.06467737858099146,0.09960595336132377,-0.0112863388794213,-0.050276980608751146,-0.003730568378696496,-0.006143949355047862,0.0141905529219946,0.048231825836134376,-0.01639165950458394,-0.014455799297613203,-0.0550562572181191,-0.16396727691407884,0.6669705330810419,0.018291613110248517,0.007506750745375407,0.028848701517532466,-0.12676748992253195
44,0.11977944464864104,0.18657628387955397,-0.0009397724326882472,-0.028456349366391465,0.05329100345579999,-0.31072802869588806,0.035568282288987896,-0.0414336295924303,-0.014209601522936172,0.07924495500631022,0.04652066458315239,-0.1560734390722187,-0.021747786522020314,-0.03321337948294151,-0.10993504862325744,0.04070645638380088,-0.030722854940262063,0.04989678364216569,0.013789797653182001,-0.06149451016475595,-0.02358338214080906,0.06550744675270354,0.13663210144935836,0.2766895342848902,0.2169238476383203,0.1676247149077601,0.015012808782886862,-0.03916138856651517,-0.1769270034093418,0.0319639820301652,-0.07494284970746799,-0.05201718172839502,-0.11552826523993258,0.1749794463305006,-0.085737220791882,0.08779059791323093,-0.11639030926007528,0.01292805542456043,-0.03469569906242024,0.0546585574297834,0.27273657284584246,-0.022467680882100487,0.07280994942600089,0.08415507045260394,0.057516599764745796,-0.09109686465952571,0.003334461798478225,0.023930422540783657,0.0413430075374142,-0.03536096526607877,0.03331804401802842,-0.03113950259606122,0.0056299495703774904,0.028061608679542042,-0.03556858584163326,0.022462183062769252,0.006660067840202719,0.07751281406554028,0.16920813492020353,-0.5747168261543371,-0.02209464483641537,-0.0004974383389080295,-0.034215112757409405,0.153731811687074
45,0.11708405202569167,0.17456049576533003,-0.11829319529202532,-0.12394010119526565,-0.024499920566732503,-0.19935686097869898,-0.003909704469556468,-0.015785287099116908,-0.03200857688138011,-0.029716560945223073,-0.027116288065527107,-0.06552365018302128,-0.4213086407975806,0.04734531085288632,0.17486273943189168,-0.03085121630782574,0.10316442766242763,-0.031695218298618884,0.15781244407374734,-0.14364813340150115,-0.0035234364463438217,-0.006764284378974261,0.032102808868733734,-0.01211570641275301,0.22461655911221487,0.0014473256482623459,0.040696397436485954,0.08350851781389755,-0.01659649497058025,-0.2886011218701563,0.35426819000783694,0.07835211142801052,0.16462786685757722,0.32822383646296105,-0.01421643922300727,-0.040036495899289794,0.07086744255524027,-0.029002547917483024,0.02277918977045816,0.0013810857048033864,-0.16890057613955287,0.013423431895202148,-0.023724192008315298,-0.04054485785042248,-0.08603832314986351,0.006852730159378095,-0.16612517210759079,0.22634823653392863,-0.22684365227468536,-0.05256354500490948,-0.016644816419919054,0.013496984045308524,0.0007000802273363638,0.0016809709705493947,0.0015662410546414124,0.0003257406343492725,-8.864795836519002e-06,-0.016743671870427107,-0.046391598447028726,0.12956444687318583,0.0077066865739188195,0.006474181918561528,0.003612545684943451,-0.026355499473948413
46,0.11369634662122281,0.13644513096026883,-0.20355014386595457,-0.1539055979315639,-0.14020063032449628,0.05049239678971689,-0.027362934280476824,0.16652799631677576,0.09044422514945916,-0.036161348377545595,-0.04506781201602237,-0.043673766409926866,-0.25790336341018266,0.10760855212285816,0.0932527490341648,-0.0020101764681656562,-0.09951467040504958,-0.029229451638878006,0.13732677505873175,0.1015031263605492,-0.037800713580339984,-0.046017522232179295,-0.18344076075282478,-0.2542513095520096,0.16089311346242977,-0.020539962832171355,0.13810917779398582,-0.4257653438779424,-0.24881634679521447,0.18186838280130654,-0.28886298411037215,-0.11362131109916021,0.1509510280538328,-0.06889255005433624,0.232554542211374,0.11814623138226857,-0.02500978084193714,0.018257550735337802,0.14164702681742847,0.017833614449327323,-0.010230223166347134,-0.1416406107398854,-0.04152323084227775,-0.13626128394784132,-0.05955892066170462,-0.06336227871077953,0.12030989610532586,-0.02912171092273163,0.1009436314518122,-0.018102392295297365,-0.019991835882689518,-0.0014572650473756443,0.01920495981761794,-0.004698522086831691,0.0026693708420697376,-0.010024557781388227,0.0073643035156841785,-0.0013908910170157274,-0.006568054736627646,-0.02838546623694671,0.006791710338489687,-0.0002630602944788396,0.0031335167720806384,0.006294890237873718
47,0.11459155186287245,0.0907563491009781,-0.20664477863210312,-0.13243074367829058,-0.179219953014479,0.17786015842562924,-0.019083377290208706,0.2745722562442847,0.15340187459434754,0.0393743449532921,-0.0029655336121882196,-0.052069103052046276,0.08990924014615452,-0.034572569036974164,-0.11455623895855832,0.13895730072553722,-0.32647740888958243,-0.058214368597089804,0.01492571865246134,0.16511511347569274,0.01687477151164119,0.1248539352054195,-0.00024317670909348998,0.11073512648853602,-0.02296995728753587,0.1468823328752792,0.1157788966644485,0.019659530774259287,-0.12158973764899288,-0.12223030170183612,0.10315324898509813,0.2636258250466791,0.035890646556895334,0.002733049931041953,0.1820748898296836,-0.04115654724592632,0.043432644110159555,-0.006517689435944163,-0.40097785845794864,-0.07891919075702895,-0.09403707204496252,0.21403591308385017,0.009091844499289368,0.256381040571212,0.20117222278264985,0.07981835481266347,-0.09274444670485604,-0.10413138065459693,-0.04057617376493994,0.04856938454741597,0.03611221616210478,0.004494051674065096,-0.008314980320333613,0.0067856372397009646,0.00970029473681755,-0.007805796328556436,-0.012269174160512597,-0.006826702255430035,0.005550200455889422,0.017050692144149268,0.0033415177338018964,0.0008006129007655863,-0.004885729205211423,0.005105438880184859
48,0.12659130872331695,0.07650369062396545,0.1847535429201652,0.07329082044370515,-0.09668841001514027,0.1307357292680531,-0.11661543170061571,0.018080723541736867,-0.17671772946722303,-0.21104704302431634,0.14126474474997588,-0.013127669434397915,-0.10414560693287934,0.032047569485942784,-0.13960712874369066,0.04093362376828373,-0.010996825628593698,0.08667707634305276,-0.16038720554674343,0.1037884175943095,0.0300261168553173,0.12596169539020347,0.11267571977662695,0.06023164835325881,0.02364465976969815,-0.17380989785366435,-0.2534672428124487,-0.3890982036645089,-0.0036418286554964763,-0.18290931621976053,0.2158062164805539,-0.11740065629852328,-0.06140502476690675,-0.04506952514467328,-0.020760387852676504,0.011141395865050849,-0.17574794128052834,-0.033622232477546254,-0.02571964305159955,-0.016666959769440104,-0.055740881643289615,0.024916779547154034,-0.06312167326652034,-0.01588759464812416,0.013851744228613017,-0.05737365654560042,0.08229527371805476,-0.06650728422834315,-0.0988484456746844,0.18778492642806818,0.07532976954772182,0.4057255242012572,0.11257978238869107,-0.03791766763095658,0.014683673106762746,0.016513904641281094,0.02834853541921059,0.24058915225484576,-0.028657456941095782,-0.008370567263034964,0.017238053837229345,-0.002152815266582009,-0.008242634294947093,0.005173879528321969
49,0.12251511144243941,0.11719195197944726,0.19934595930789778,0.12318008069983943,-0.06201310989931561,0.11428310402644525,0.0012340673197395282,0.04679322029691329,0.06786305711827346,-0.04373297384215629,0.13021106393389595,-0.09634622085160116,-0.059746799308831,0.11017610793283233,-0.02229122342894197,-0.13464663466121848,0.14597370491650383,-0.20601215824389868,0.05223869175255269,0.08383742722452431,0.1043133411615734,0.18858751005689867,0.13243950684454303,0.023170148291811497,-0.18835152158373536,-0.13777343662591063,-0.03875244825137405,-0.11295308967748707,0.03867276738525385,-0.03241150204081702,-0.1134307629247577,0.15882794919116983,-0.011738274911376939,0.14023459454377216,0.07460674367379652,0.018451864752297625,0.051092894475153215,0.017801803713555206,-0.10605633894962901,0.0331177940635847,0.22614297572914022,-0.10219183065957857,0.14161303466951028,-0.08306038224824391,-0.08870713142349024,0.2263852389829838,-0.15032703763310828,-0.11145876563606197,-0.04528998093602724,-0.2778126701384357,-0.4934153453578385,-0.13467501813221694,0.038707867070331275,0.07382641506753962,-0.037179031279165387,-0.0424363955241357,0.035534338156053266,0.0766601355981198,-0.006214442278855342,0.025976637336391592,-0.011961857013575827,0.009130367994908573,-0.006595680569366311,0.005193259399556071
50,0.1172424094238261,0.1556201020522107,0.15510558328230367,0.12261128857062885,0.14508204989484833,0.0185563815010079,0.044700359713883815,0.19205195429909103,0.17372865777759383,0.1064104282340022,0.069581588239604,-0.2139218544407831,0.0826818739920661,0.06804079990984069,-0.001016810833858948,-0.08562473639982984,0.187662568567284,-0.0722397766640394,-0.1512453707963157,0.14119722737230198,0.06803538190758018,-0.0626800079024769,-0.17031926687471377,-0.21191567839284794,-0.1138959523486679,-0.04981043091338734,0.04644885980269329,0.06820495735110345,0.08549506326078118,-0.0060097253205766005,0.02500381772884544,-0.1011901098746816,0.16885073358782351,0.21624042170946986,-0.003975713300411535,0.06647884419992126,-0.006307892603885104,-0.01965753761496533,-0.31160813573057367,0.08946901922978977,0.10214898102437019,-0.1587291141648514,0.029638448744108925,-0.14596155115468892,-0.07725511770691093,0.07638357304355776,-0.02992274919049273,0.06434349098050968,0.02104977586090214,0.23363516176234328,0.4602486627777178,-0.0524265200516686,-0.1013748973761834,-0.007952553482314773,0.010608120930186458,0.032717495508434946,-0.028743684122437912,0.04080697237520929,0.03207849463984519,-0.020817219686285887,-9.159304147050851e-05,-0.014855365040071872,0.00029815111227342317,0.019415944398968918
51,0.11189848764793345,0.1789537106194405,0.05683743334934727,0.06642727740402903,0.29379768888671465,-0.06975927665702648,0.05750901399704095,0.17611577554993485,0.11530134224662623,0.15437373326369414,-0.07969253186835161,-0.19693943345637435,0.05600032722187808,-0.061255204986038446,-0.1465346586145307,0.07398346510673556,0.03333177056101516,0.2694437644800663,-0.33202182270892394,0.017001097560653516,-0.014498599977343603,-0.12767101181614682,-0.17520993105604757,-0.23726684401843984,-0.08924637079537437,-0.10808198779198536,0.006070118657294676,-0.04863013793567371,0.003157419361491526,-0.07611312463972526,0.0829321506602155,-0.0006585523235956361,0.05999941755772269,-0.018522243224274842,0.02473352585168964,-0.055135737888029966,0.19096011438195998,-0.0394560816776372,0.16858758165643936,-0.07348861408420777,-0.07260833528388042,0.162703714164548,-0.021752429694540894,0.16190475994383363,0.1331705613392039,-0.21839108404229313,0.0619585354728219,0.10989179080248483,-0.025378638283413052,-0.2178837256451281,-0.3127425400998291,0.07187030953968647,0.08166371567751013,-0.008302763598699359,-0.009989717947636145,-0.035234561085552674,0.008736622563416674,-0.02480619919627749,0.0038157253593772006,-0.0651045506005558,-0.008423858660960182,0.014373211449945314,-0.007422161294385651,0.008583942073568746
52,0.11738400462455041,0.18888072655576227,-0.05196730030107683,-0.02499963773070102,0.2176879362029481,-0.10083532657793202,0.06872452924543279,-0.09773604348925453,-0.027654115577024147,0.049107965923256794,-0.10234862245002095,-0.08016498803033675,-0.19483067549804392,-0.10183237101075271,-0.2594812145549313,0.05782500430305486,-0.07959836105458296,0.20159085455556866,-0.08272269162023461,-0.1448758786288074,0.0199879829546391,0.02574498843323489,0.1648660802085332,0.04061706197785968,-0.27035277394883894,0.0029340311930246762,0.10551511834995285,-0.0197942877993789,-0.09894382162389644,0.01504050998870337,-0.056716858106743526,0.2354676747535181,-0.07958815627766522,-0.16123470330049983,0.14917580198642427,-0.017868784527770104,-0.012410087262845843,0.022879051391781546,0.28831678817642,-0.027669359929655052,-0.05585291582154535,-0.09780940930555412,0.00920456670969641,-0.06340274413689241,-0.14915226259561862,0.394954582192583,-0.14815219161087556,-0.18522451309878116,-0.05365270860328883,0.1989473194565512,0.18123811448625018,-0.04031546463725785,-0.05648710258060832,-0.0001467835938236406,0.010717049536221074,0.017920783371969617,0.020628622950770906,0.0045321835660241255,-0.0321351720867792,0.06970068438309784,0.020449791252336043,-0.011523873628342174,0.006458551925312445,-0.007782331240828069
53,0.11764241494679001,0.17249130021554052,-0.1488294186281094,-0.0984774094799707,0.07418315401998715,0.011634269491626792,0.06910937874129214,-0.18990610890397924,-0.04681481648643373,-0.022933648578112944,-0.006955053579344226,-0.08081386209052689,-0.35275002040198566,0.020967873548405905,0.06698867015068322,-0.009418063836049265,0.06361840022908373,-0.005725073175305633,0.043242134303648774,-0.11213931490684334,-0.02796018947518927,-0.0852696643757509,0.05979240920050862,0.10684065926120245,-0.37762320804929217,0.0315667386489216,-0.04574767774950084,0.09291694915044046,0.19415021630748153,0.027592391679716555,-0.02533749684449413,0.06107408253516636,-0.04494514777479058,-0.26413061310925406,0.07655025551308037,-0.05863041317481012,-0.058562782479798375,0.0051921812261273665,-0.4137442129082334,0.004538594849708866,0.00937310233060786,0.0037750899496090673,-0.018117149694889957,-0.18711098215453537,0.06475297610363999,-0.3083130652652445,0.25760777298644844,0.042615765205370776,0.1683190418283751,-0.057360850986994755,-0.037795966774063466,0.06060235105425998,0.01567370885198191,-0.01571697502660563,-0.0035827913415522883,-0.025132338573369946,-0.03132010208040755,-0.0413023631218897,0.020478988013690413,-0.02680436436837705,-0.015813511772402134,-0.0004428046316278522,0.002113168386701364,-0.008073345437931562
54,0.11676760239616507,0.13004773808157838,-0.21378173430386777,-0.10715721136380572,-0.04306849712935497,0.15787371846136794,0.061343336792369585,-0.07714638260042493,0.034701183876179015,0.007312038516179533,0.11101690152556483,-0.18773713056659727,-0.16516124559050832,0.06655655375170262,0.2666298554338167,0.08933539085812527,-0.03754801249778597,-0.020249094988829243,-0.0423245643098849,0.055414186833341705,-0.11639584353317409,-0.13691867915789496,-0.105670124481162,0.05444646688065788,-0.09596333163057663,-0.03785402184764206,-0.31489090690279997,0.02441494032761686,0.2971281597996758,0.1865594369565523,-0.1634569612869311,-0.2602414914031099,-0.05673428914094414,0.04621531605088415,-0.1956382182223514,0.034162894780208695,0.0026919709367948103,-0.021706751547814762,0.13739354149122204,-0.009701893037377535,0.0295084848418716,0.16081932000803362,0.02574875030637297,0.3352963338501018,0.1020380554650133,0.22389303209220654,-0.21320443359798266,-0.0771310130077261,-0.09927902106228624,0.06203554160679643,0.02204615883027236,-0.029283455085965054,-0.010335725556192332,0.01841186025515866,-0.004279931765501593,0.03229210124835187,0.018476608296002707,0.03868125893732322,0.019707432286706877,-0.01596579201736171,0.005572968506433268,0.004819188161079513,-0.0002252692752352653,-0.005452085626275548
55,0.11850679484165318,0.0789719954831185,-0.2209610435607561,-0.07097283970395835,-0.12992282346882777,0.20488899576078987,0.022112147816895595,0.12738882833483678,0.11854171663851104,0.06924706230370013,0.14604607078788814,-0.16488717225250146,0.12477405057864237,-0.06759097070765327,0.11931652005055154,0.21517387414176126,-0.3136885764241033,-0.0129469864472763,-0.11368022411954849,0.07356056792461928,0.05316318870721217,0.22797527690178815,0.13172283481775635,-0.015960462020748134,-0.02127927382836143,-0.10390618380320574,0.050359898606476355,0.23285301287808247,0.06582678737164696,-0.040088565426413064,0.1510370326717448,-0.0013394743229168948,-0.16681079914754335,0.005110082169764579,-0.241900501660579,-0.06154214149564068,-0.01033487538427897,0.007261296907114079,0.27281449304567307,0.059225140387726805,0.09418588314543691,-0.19686470604318745,-0.0023704355428469798,-0.31139427233336375,-0.22584785400903032,-0.1315319631575536,0.12406122133995864,0.11848725350689279,0.05335563095753135,-0.038599685042018675,-0.01864860120747962,-0.0035278496357772846,0.003846331174402251,-0.02016435546010409,-0.012634753813341993,-0.002654041504956628,0.004622846305806366,-0.0007071296357736949,-0.010552140198855163,-0.00015885035711914533,-0.009654311767856888,-0.004955996516417954,0.003373343532349256,-0.006517730140772865
56,0.1257544533284236,0.06813082818388905,0.1054498649690992,0.017600730718831434,0.0685403111154096,0.07567586671969408,-0.26286127942024196,0.10583799770305093,-0.33714822806257383,-0.34996714658631983,0.3457376688947498,0.04083649831133089,-0.05613448277099915,0.022492555195732882,-0.19549529516539169,0.10036612619838214,-0.21456991344810297,0.16229911824431514,-0.00825445035224362,-0.10893657114224668,-0.05026034008634268,-0.2284166674696319,-0.17262291260203994,-0.15675297382064748,0.18015256480312594,0.028264905324193963,0.010251293188798291,0.3209079802579624,0.11479375547373909,0.12854701707280267,-0.06459618267699743,0.13847971621303426,0.06201039232952063,0.06508085845567149,0.09182548624781364,0.059871308245716376,-0.17271185585858184,0.03197995652080343,-0.047076029368469746,0.0039946740123564944,0.05208042169377419,-0.021476472314922362,0.033806900086319536,-0.03568817392927011,-0.014150453845955063,0.0330939835064549,-0.028766213963528627,0.015736681439455946,0.04612390700687242,-0.057125013776071015,-0.06784266754404578,-0.1105225594718903,-0.017729192485139045,0.02273460717781972,-0.00797162791885686,-0.004831209483048465,0.003529900817654641,-0.02381164254859105,0.016619218661335595,0.0012852891598173748,-0.0037300530803472676,-0.00032455819898641325,-0.011874221961979348,-0.005918930324830929
57,0.12317515864159952,0.12026411254436974,0.14287273982832507,0.09647595309449024,0.11731123363361602,0.11040089008367046,-0.1395118415295385,0.17689660911359995,-0.12208480805484687,-0.21345807951032766,0.2538763970220017,0.039827233906467224,-0.01643652306710051,0.12446069578475029,0.09995513539837066,-0.02391728503943934,0.071041386953883,-0.11923268424847223,0.13512002727655836,-0.058714647092607555,-0.017537856975838303,0.006646610332915019,0.12733639252061638,0.1130793883093013,-0.1657218562439091,0.19680299884943986,0.19805679597918038,-0.022126305821230288,-0.22133194949941967,-0.012739691051696492,-0.11702414687026325,-0.10299302088380205,-0.06255901212289999,-0.10285059581919247,-0.1860554428865966,-0.1580589743274664,0.5536197154241492,-0.08106614383524803,0.11735643815144167,-0.021619487946323415,-0.03997446569179644,0.045427203481875345,-0.012996749001769947,0.0931428980280789,0.03242295512869617,-0.07821010720870933,0.04462045013538932,0.06991214902437841,-0.026251922648266438,0.05341445541912625,0.14044585353047845,0.022787794464198173,-0.0036372673580219936,-0.034828654739648815,0.02060357947964187,0.016907189826731617,-0.006466691865813695,-0.08455838950304975,-0.0031570788609250056,-0.019984155554951984,-0.0009840183741611774,-0.002070882877653224,0.010888546016060624,0.004695378547362884
58,0.11183601984792363,0.1481200879908946,0.10875903674043617,0.10877592717685963,0.2941266936899727,0.10651173867112783,-0.03043047542285271,0.26825126658111736,0.07367051406895529,0.011604495124169199,-0.03684582985053915,0.1549924831246692,0.08906734674471971,0.030272082894895632,0.41210060943308446,-0.014804923141748791,0.0926503659401693,-0.04682324603898708,0.01932199217851084,-0.02470007251364985,-0.014392089956822868,-0.03629961532074136,0.015593860924183592,0.17224785170336224,-0.11300303195703104,0.23494774089587858,0.14873669719330232,0.028924876859564817,-0.10537312975124245,0.044033919674866515,0.1506609158382302,-0.05647999048083359,-0.04447450129802421,-0.030009856884021177,0.04261557209348833,0.1068775151873073,-0.5503022635511035,0.06763732059673906,0.12462304442112762,-0.008648592174856057,-0.13551274314650108,0.06880301868384846,-0.0769663073873893,0.005770437051447863,0.010940548805723961,0.018451276953413087,-0.00749304842814455,-0.06844759887089058,0.005715310232974696,-0.02920689667916737,-0.10729947316856867,0.021185053508931795,0.014592069519285128,0.0032380317506152806,-0.018022879823809713,-0.0028994468612443813,-0.005622105112461029,-0.008321455563535363,-0.012446359294009668,0.033095151068189874,-0.0034990598740668594,0.008677534168300909,0.00018422575669851948,-0.005222007822020272
59,0.1058539232398918,0.1616834263072858,0.02356480580578352,0.06604178427712436,0.38935421623310107,0.092443977313088,0.009478083150760019,0.16548324482224372,0.00488802678849775,0.04949421702199246,-0.2581392001401728,0.31477552841929085,0.039938483658906676,-0.09684520079794193,0.20715607630856203,0.054197412301892255,-0.15621835785243604,0.04914356415976787,0.1541190485840637,-0.04111408562575546,-0.07145637012231906,0.05188250631837711,0.03286330830373918,0.05591975191942871,0.3442343769443466,-0.18334999090810875,-0.33900750271629265,-0.07060473182860594,0.15152313339690338,-0.04758189896598604,-0.05711176924418116,0.12132198579536702,-0.05426490561886328,-0.13335247654635257,0.07838580155123503,-0.07643878698138708,0.22330239482009095,-0.011592983344418939,-0.13214295373252444,0.010481786586183591,0.19311868097029494,-0.09557309530556124,0.08697522693017784,-0.05627903429985455,-0.03518148193507749,0.01674920141242041,-0.01541893688426324,-0.0010940707306295039,-0.0006970195202408574,0.020560576503272213,0.06641513019558987,-0.027863989667395533,-0.009567513011456752,0.0039832713994093355,0.008006633771438662,0.011583503764597047,0.007971591117807986,0.013794855853805292,0.0032479188622235033,0.007345244126570619,0.010042874906052712,-0.008038414093271561,-0.0010172894977981337,-0.0005525045562254577
60,0.11478574747950834,0.15236897056323376,-0.09686084935825087,-0.0065908508063469455,0.2578481293545464,0.15610454517678643,0.04194823586488147,-0.2484617060765451,-0.10280267723600013,-0.0635679574528547,-0.17926141052838568,0.29237122758369627,0.022125457700272858,-0.07557768753771117,-0.20891248179621325,-0.035530218926369685,-0.170850209580917,-0.13634889891235738,0.0324094637789063,0.11452045180323603,0.13060273534849076,0.20688853299338697,0.09516565794369643,-0.10214211890488958,-0.10802505234810439,-0.11968879324259311,0.09219335211723387,0.020263546690687334,-0.012831402572784742,0.15171905799099422,-0.18626331236520757,-0.11172738789627065,0.10637625560616569,0.4070001789936571,-0.22184813157207472,0.107568572953689,-0.027936283278593016,0.024823959117682426,-0.06825153684682723,0.02724848098550814,-0.3044399591291651,0.08158487405945308,-0.10477507225361213,0.01494712002111663,0.013652166180548458,-0.0639027438545991,0.03576517656478117,0.04995546669389335,-0.0031853364090057568,-0.01461563433531884,-0.03429240883492293,0.006648233994330288,0.011484491064808935,-0.005329250393128843,0.0020446993278749924,-0.0009464824757154933,-0.00760917268999714,0.010870450261983959,-0.007146602787181516,-0.0649579701862334,-0.008595158528098945,-0.005192465582623353,0.00737469476060737,-0.024376378239047092
61,0.11501020178848806,0.1500307611689125,-0.15704397146988355,-0.04986112556958627,0.1327647540598498,0.1876218165888487,0.08754207849423415,-0.3246797787839855,-0.07274508569051091,-0.055336442937442276,-0.02268022372697549,0.114913578586532,0.045824416206736454,0.018445388645021026,-0.1876519076132765,-0.09496126488987945,0.04399908435982138,-0.2054842546833268,0.059861117466704555,0.1782085638180728,0.10683322678571637,-0.02872004174729588,-0.15244389512653728,-0.11821840695268274,0.08083087782952336,0.10077566893659018,0.16396833248963663,0.07806558328094913,-0.08325043945185764,-0.1549278400571107,0.33924689559816773,-0.24744550134873206,0.04490824728021846,-0.2699987046747189,0.07575428045977167,-0.01766077730616114,-0.04457848577844,-0.032164890209174,0.11050655331071155,0.006169931816171259,0.4093929927814569,-0.040198251465366125,0.12093399478952392,0.14167359627805196,0.05799849587764348,0.005539001854463828,-0.06122403965660727,-0.008776906356672345,-0.0008705354921908874,-0.0387922958040941,-0.00014980713863681216,-0.016477812286923937,-0.005061257031539607,0.017126907549739896,-0.0024419930737234197,0.0012862389724448801,0.002558898635606273,0.016028870775622577,0.01792783454535464,0.07229090989346783,-0.0024191650302466117,0.009890393103888624,-0.010481712298474472,0.03294371631588969
62,0.11367420542320981,0.11142337197472786,-0.2011901261448393,-0.04235541948277631,0.03251566415907244,0.2553118539649944,0.10376622099305549,-0.30880854786559137,-0.03129525219999884,-0.011353388482071519,0.15798479966203438,-0.02645763714021404,0.2939077982032052,0.03648825556892568,0.032311342524410584,-0.06410080530271468,0.2709903970945867,0.019334097860818092,-0.1822459340369487,0.10547849454501661,-0.09849797528584399,-0.19042028660965732,-0.1813461812175201,0.18673366530600558,0.16890279758163607,0.22860503440727764,-0.16157599752298735,-0.13182206410249542,-0.09554867102708456,-0.09869698484234192,-0.10664876178677568,0.3492106130910688,-0.10781955350979984,0.14753693859941464,0.07994199221532607,-0.036967179689284695,0.07625129701408559,0.009730698170490729,0.039087438234951734,-0.005564422194745067,-0.1833626938874044,-0.058508048017821,-0.05966524996473366,-0.1652843133573091,-0.09497205376429804,-0.010093263106000033,0.055518471768598865,0.024045954992503615,-0.020275945915457422,0.004534121363833604,-0.008884177099506396,-0.01053874822956602,-0.00686440809562526,-0.017879889945603383,0.0011958243112902278,-0.019207894769527604,0.006563942496794456,-0.008868544233211803,-0.02893337093379475,-0.01543100707590505,0.003094120840846891,-0.004381129189430816,0.0023660309245813194,-0.01189476855297749
63,0.12465187801490552,0.04647560874758253,-0.20087509036500012,0.03584501933706335,-0.05469670876752133,0.18660547212678813,0.042380114901611074,-0.11379107403138916,-0.02138361250568914,0.05291141844911467,0.21240390345608023,-0.07472000733754082,0.2670277443809576,-0.09624453119900991,0.15350932271820855,-0.041981993639145065,0.25068663155619547,0.2930222172627882,0.09959878877943487,-0.41066068041841175,-0.051193534240635545,0.12754252760896845,0.27112325997842823,-0.16807243234024097,0.11892998865373948,-0.34483740551062303,0.17914983847384194,0.0014264502148819205,-0.14096809618581033,0.06753736765445822,-0.0070125965097999204,-0.07811979336938006,0.14489289425322116,-0.06645630227586231,0.04476106237026144,0.021026296188459317,-0.047698711728585766,0.03168539232251126,-0.15796253212226613,-0.02791945117287714,0.001720477112212515,0.057022502849802335,0.028759244792609134,0.09251402054466634,0.08844891545538132,0.028704827455848403,-0.04260990249785021,-0.04882947562999083,0.012906203415450637,0.011812800767191906,0.01672157721545661,0.02179876727932148,0.006421158883601286,0.013974336337435223,-0.00023515501852200416,0.022269753098895048,-0.013548223227843437,-0.00941780989202784,0.010396950468079619,0.0024957888478194176,0.0032346194198856204,0.003986899002355493,0.001891886263620246,0.006579904110436199
