,0,1,2,3,4,5,6,7,8,9,10,11,12,13,14,15,16,17,18,19,20,21,22,23,24,25,26,27,28,29,30,31,32,33,34,35,36,37,38,39,40,41,42,43,44,45,46,47,48,49,50,51,52,53,54,55,56,57,58,59,60,61,62,63
0,0.1263123710058414,-0.027336571767557674,0.1559647976922181,0.04286862146758285,0.14977879284799692,0.1497023006869489,0.09791152595100085,-0.07558480299304488,0.31310547501909275,0.01710605197975154,-0.18846561051909097,-0.08843034630999083,-0.06318448113548437,0.13504579851325577,0.2969939046347315,-0.20190425060431152,0.12670362291082118,0.26129367512229124,0.18558882464589146,-0.1534943810789632,-0.08804387484219557,0.186234009320653,0.10961123857381316,-0.23399941083641781,0.17850672478620805,0.014693314015013476,-0.06863779421808637,0.035939546588907766,-0.09383753766111132,0.18408990828932206,-0.13277966852536413,-0.08613656718946036,-0.12939517637898906,0.008701070574417952,0.20712824742880348,-0.22752689528808132,0.023607659624399382,0.06328937099385977,0.09093752699605981,-0.001960090384358505,0.018488557008926963,0.013944911877258617,0.14033112101641682,-0.07812636226607819,0.04860008788330441,0.03670536002828179,0.020768934018284325,0.09545103452345231,0.11040290862508144,-0.061631053318732386,-0.13728965905418297,-0.00023020098834018808,-0.019573377745342006,-0.02016829457309973,0.20394075580240364,-0.052194163967565994,0.023069632099952653,0.016428481933036126,-0.031805161142017487,-0.0017425771752021784,0.01000853262619025,-0.0020216769542345994,-0.030303000098804583,-0.008233949821479708
1,0.13862351109286863,-0.06197030413910945,0.08642739278029711,0.049207157943490336,0.12188059617952629,0.11343304126882238,0.15081825731094853,-0.09053865527900766,0.1641994155326943,-0.03798956979397289,-0.2470652427767109,-0.007417973803934861,-0.03593631585510684,-0.07083423542337616,0.14948301286132024,-0.13285872808578025,0.0651521502665538,0.04674223719187389,0.005913262178399464,-0.13922562620211007,-0.12872170388592583,0.10653752782461533,0.10559510112861809,-0.11090943332752204,0.10028721792530247,-0.07661948177922627,-0.08144496277031718,0.024148109616917258,0.0418849378845696,-0.07314737575914379,0.12571359582913016,0.06955834294841952,0.007223592667936891,-0.024404637501342013,-0.2145935793634749,0.16207935818854036,-0.012268198203223543,-0.04576149841941768,-0.09030632150637803,-0.0011982949269108273,-0.059743011182453225,-0.03117315025293062,-0.23062817253096546,0.089828771956809,-0.13340767022294678,-0.13833904414026404,0.028301325097564757,-0.21076564778346105,-0.2108626454394329,0.18802003325613564,0.2795208914551356,-0.00046250569120020134,0.11538027419854348,0.030046319327902173,-0.4648385685209119,0.0930116433073119,-0.05198007012386348,-0.03930128707358404,0.08275503522093841,0.0004426557176363271,-0.04466485251833912,0.00335088912063572,0.05438496687888213,0.013974153317055335
2,0.14269063874714538,-0.07901909401186202,0.03456130991585682,0.006462730410064732,0.07618869720583571,0.07260436099828113,0.15367084255144406,-0.0838755131037541,-0.007631688235674297,-0.004967700033641689,-0.21498087672622943,0.0410722462645334,0.01829538011366844,-0.23910528076525478,0.10686631267570282,-0.08820625634177032,-0.04595708806415125,-0.08113002119706883,-0.0891729089126563,-0.06863064361933771,-0.10741994759850546,0.007741743210484903,-0.019305458468895184,0.015243389006262154,-0.00454268448678366,-0.03816864967730285,-0.049651474230342094,0.01048017245868561,0.09534686705003387,-0.1667770922973077,0.04735537558894175,0.14409144207786134,0.13531569934622534,-0.04826911650196178,-0.2591241896787673,0.4069665410599743,0.06771873128932786,0.11196707378750088,-0.10743806088650457,-0.030719102090315996,0.0038462789285822925,0.02113418729498882,-0.12275844217807191,-0.004538522580587831,0.16405790554074945,0.15709487982946913,-0.24119695069337374,0.262677985909233,0.09516360122983847,-0.22546842097437778,-0.11559571007267791,-0.07611671551940678,-0.21776705669732954,-0.015106496918040833,0.29146902860778495,-0.05171735842563797,-0.03203050731968669,0.023451615862788468,-0.10625390662023632,-0.005883744296662895,0.04695561565451993,-0.011327699020121127,-0.033013325091780656,-0.015087563520277548
3,0.13547933391628447,-0.07866333976422213,0.0011229522101243172,-0.08651648008663987,0.05545220142962548,0.069124233040819,0.2007844641515501,-0.06184863962057874,-0.14396163553443453,0.11370439849467602,-0.1920645375909861,-0.012885824982540685,-0.05183800789469547,-0.28743605431677005,0.12813402323823891,-0.17144178577210534,-0.12330372136734857,-0.25375923346764084,0.102123915488412,0.197884946750679,0.09045032115239568,-0.03988640968251344,-0.03654819252159943,0.10482144048067792,-0.2029723463527819,0.5265718819880258,-0.08468828349375819,-0.1013305074186524,-0.09731427125416878,0.19605279927609265,0.20170704674578904,-0.1296513441434704,-0.06777428030798548,-0.008987436873242407,0.2286946219674447,-0.011103239517134322,-0.09139389872211921,-0.0006013094606441491,-0.0554005764190533,0.03971550094750814,-0.03044362005703226,-0.15770276136065992,0.113960459004494,0.053390534644338045,-0.017161828791408637,-0.00574804497204065,-0.016653060360930713,-0.045299974254785935,0.002188605493659998,0.03786965506900265,0.0018184974963957046,0.01918380636380042,0.04949701888852499,0.0005482618054897387,-0.03794400477937619,-0.001239541334070754,0.007777624876103067,0.018504319663318204,0.014940533333947374,0.0107876064350498,-0.019994166447977864,-0.0033980500497472637,-0.017541950735861317,0.000957875561354694
4,0.1313920091259199,-0.08145498444188537,-0.03994283773122076,-0.1992335623285458,0.028144242825693735,0.08619983259444325,0.2092471466924222,0.02349421644257043,-0.18435737704897182,0.1796626641279517,-0.010170490037207297,-0.04231803567610029,-0.03805950348912205,0.051944917752871404,0.10154959829171706,-0.11467758484411683,0.08568294956342871,-0.32115697085251654,0.09726857135807626,0.18517862523144638,0.2289149455934916,-0.04542301258702176,-0.004445206078483175,-0.08336830670851181,0.021443830765432104,-0.16818703397614707,0.012706767906047425,0.08991209675611886,0.007049462035113363,-0.2486760115770082,-0.4210699564786098,-0.1478533371075821,-0.16752878072476393,-0.0075431719654404355,-0.18093722882101027,-0.20529324113271596,0.13207296245459027,0.031917043736573364,0.10653825429952485,-0.0717638249418163,0.0016504962926913959,0.04627466294885737,-0.17095514025583758,0.07894596116082969,-0.04672464859439067,-0.00906387831406514,0.05451494559343098,-0.03680072263457392,0.0524576819830263,0.01079175359339963,-0.13457271323454056,0.06796472832795833,-0.19513513416120706,0.04553621569717959,-0.11369758917695738,0.027735512154866925,0.06571072822303867,-0.028899879908961132,0.0009494804478660211,-0.0066405054446469465,-0.06961184679964702,-0.011057571410412815,-0.0061783301875760616,0.030937497599291954
5,0.1270370619172684,-0.08314683703999684,-0.06658424257036838,-0.2882920048386026,0.002520779664891948,0.0867937296348602,0.18393242192904105,0.060787187753890456,-0.12724824094427523,0.11280927585552805,0.12558716673852485,-0.026046376767358242,0.017641050264336627,0.23245187041181295,0.05156902123952767,0.013843468151289562,0.1751646052255458,-0.1406714846255443,-0.006116470930706261,-0.029214005623187916,0.02629246059904739,-0.0036281084887321846,0.003940512418888764,-0.09760144122746135,0.09013524486534973,-0.09916953778475512,-0.01266079982293837,-0.0002521116941581695,0.08110913460826884,-0.22043239126975586,0.1434977732288145,-0.0683257766301821,-0.05876569461581539,-0.08545510198907327,0.17299816554441702,0.13669786470730516,-0.09671625663708998,-0.02859097403969694,-0.055464904814508886,0.03022820212083981,-0.01856296746302576,0.031952266266781944,0.058148773352922595,-0.06525634784683526,0.011643776335246124,0.002012435592494359,0.07550318544348471,0.0991341815354228,-0.10682111019604316,-0.014577177877029453,0.1907525754386134,-0.23142207973081197,0.4528637859377869,-0.1532908446400455,0.2134892657947713,-0.036956816992518744,-0.12873491614446084,0.0734615608076585,-0.016066646725301302,-0.12836251255259917,0.24295990621689045,0.06226443605160953,0.031427014752968004,-0.06098093285290601
6,0.12936335601459192,-0.08847974262897303,-0.07480189196038542,-0.29458856143416245,-0.005315231129951997,0.062415660105259396,0.09608809950430547,0.05234023271006305,-0.020274387332702704,-0.04281353415238339,0.1482184418367138,0.07429394535928512,0.08918802005577828,0.15514616211932597,0.05789269632992458,0.061046932212118765,0.16047577156908457,-0.055987846264045765,-0.09840604397710187,-0.17938527773452587,-0.14963418986078214,0.011672454545152533,-0.024230752897285143,0.011661010007863723,-0.00578839968069509,0.06895159247335489,-0.02529214561303852,-0.009702637399151642,0.04469063786548735,-0.060562951439935786,0.1111055997997833,0.028735014325475303,0.015024794658154178,0.01764090171906381,0.15595414984049255,0.043787613707672854,-0.06600013314206647,-0.0029743383893161487,-0.06739542861217164,0.0469990313609533,0.011706180161579814,0.10305702916451014,0.1892691911252179,-0.23792769044464135,0.023141957657324776,-0.03605479969812936,-0.055612469475149424,-0.09932223646638874,-0.16353063733854778,0.10754301704282809,0.2171815309012634,0.1655276611146602,-0.4593693603387953,0.03442563920573618,0.08472059656744041,-0.030363470348751753,0.1147881005271202,-0.09951222006441648,0.00383929725533666,0.13196281339937224,-0.3734952103411838,-0.07993733971041829,-0.04475474005152624,0.05015536746946965
7,0.13350850400078462,-0.08798962501329258,-0.0647489767681605,-0.2414659717559262,0.00045946714586658777,0.04789170416336286,-0.00876380544684411,0.009841453130249048,0.04638551660569373,-0.14555314828201416,0.06977921048043789,0.143185859635544,0.14143375200284336,0.0022946307064455745,0.10641714214024123,0.04156098308030143,0.0579426367523517,-0.08613156494005635,-0.13105070456866108,-0.1919137591307985,-0.22626109101851494,0.05099254280680186,-0.06733560786194057,0.1280578377359533,-0.11516717816246053,0.21209933467418432,0.01284210290824846,-0.007078614403356192,-0.009379892210177494,0.08947463651496053,-0.3613408307190346,0.2416479589062709,0.1874859932811988,0.1671971421522591,0.07733469961959907,-0.11522072364351366,-0.14752822788353587,-0.14674882807947434,0.04658064171323612,-0.01600085576395183,0.062250052593248256,0.1454223591829787,-0.17654818879266437,-0.0382936988368932,-0.09115120185381231,-0.029722659976273724,-0.21779232695408313,-0.1350311581660722,0.14550753121953064,-0.07943579504436075,-0.23498955820853776,-0.06804686932048136,0.20294301918850577,-0.023281102688249525,-0.1454773004461424,0.02425669560036991,-0.07708825312774395,0.017724161793234643,0.012304275813268154,-0.037538972165886815,0.11207243990224977,0.018254577172417946,0.023274406411717727,-6.671161494796463e-05
8,0.12554893576273798,-0.061407969030699686,0.09723692709645274,0.16109575098130025,0.10742487971528103,0.13331764625553477,0.1983697757983276,0.02407168279290449,0.23290184091413652,-0.21863539342391083,-0.0690037214247608,-0.025345746970834068,-0.14051650940512594,0.27810205979390085,-0.18982991254251713,0.10827842468967434,0.21662169883238525,-0.0129924647627154,0.17169171700891211,0.000264314287608744,0.2908897190721378,-0.07383152111837799,0.15631030589142092,0.42359221993587814,-0.3694497498892047,-0.027788985229094253,0.0830818690268938,-0.017688384594162977,0.025033838367466595,-0.004458576152501448,-0.02940265475136393,0.008624676674052562,0.05445431843521718,0.03555691108808291,0.06616102505876473,0.017330422553150093,0.014494420817992288,0.09748295802121643,-0.025606208975518376,0.01885063256699532,0.012351921400952589,0.0539506349199729,-0.02595724403539105,-0.03624273659558905,0.06766444421104759,0.0947791929358861,-0.08754659979591015,0.17082857123350012,-0.00018366145501928777,0.0002958311500938088,0.07523102479890717,-0.06633194810929338,-0.017481565238733544,-0.02016948379756349,-0.11198203600331892,0.0055904803417128335,0.012623967702517745,-0.033669791195237275,0.07174229593687381,-0.031320538322380326,-0.00616694234761905,0.0034891196636354454,0.03195261760959398,0.005196163463688608
9,0.13628963854410092,-0.09237828057491151,0.041191616180763606,0.16103279399688653,0.08216121270741295,0.08215432754239704,0.1945171158852691,-0.039874848706214716,0.07236608876279124,-0.17424157275503677,-0.1239132815247383,0.05370285355725268,-0.0389026871648961,-0.002575857280173788,-0.16954734608829444,0.12836607316287,0.05752826499592325,-0.06457954594807969,-0.10826216201039288,-0.03397488055299274,0.022027972217263596,-0.07119883534473587,-0.022318827185970183,0.03861990306679794,0.0075451877041994575,-0.11098809726978731,0.04681965527590788,-0.021879722976674863,0.07712274829677247,-0.1429691048393915,0.2003850109397259,-0.007250810257147924,-0.009724295807512315,0.014344017031639539,-0.07789531007936336,-0.18687266772615352,-0.14414190740623997,-0.27652031861480403,0.050801808257333214,-0.008136972939391357,0.0026257864844354203,-0.15602887547941813,0.021165999061171725,0.16087281826109964,-0.17230083616529188,-0.164963213679542,0.09909365479618891,-0.3657806710213557,0.025781058848168642,0.01505831287835397,-0.2234734713099798,0.14832536951855407,-0.02461765594828733,-0.0066667127262511824,0.3683345084901153,-0.04131032685636961,-0.10584127669783681,0.14346453999315245,-0.14814423657545117,0.10645305985953449,0.034696501170292576,-0.04004523792936612,-0.09935545670183335,-0.035248364900357806
10,0.14150453376786595,-0.10928531773909891,-0.01112408000409658,0.10076668802119197,0.045708094663563625,0.014950040313867596,0.13584751205747825,-0.05251140323964154,-0.07084604992692255,-0.012705396205905838,-0.13971162341247917,0.04190523470066927,-0.006817425394465839,-0.19622867989896625,-0.05927339027978318,0.05645427121138575,-0.0797963124012008,-0.0012633946186616368,-0.12759116270613152,-0.0679916732626515,-0.09533784413339565,-0.0675608808474482,-0.09103613315846859,0.06820688478452075,0.025694229213476624,-0.13431222148042923,0.02856887895143869,-0.0294758875343954,0.04012900855962116,-0.060802040572032645,0.06025987201513017,0.024469382146920064,0.025157786220935494,-0.008688751165741478,0.012434320513120559,-0.07459260766128094,0.043182652862396725,-0.08530683606969051,0.07771077274827483,0.021774119685624864,0.04326701521089769,0.22046508458229605,0.20738256190189552,-0.1622880052435783,0.028172914230863492,0.015051746065940359,0.2953562199464068,0.03333345234826456,0.15920444546349383,-0.04668053315836656,-0.04701563114395545,0.02817486065847349,0.17605157814597366,0.0844308314970994,-0.007826276494965062,0.0877194455360702,0.461021430725032,-0.36592116608552117,0.11743811444336791,-0.1819220837103335,-0.0060665725598118125,0.07309782052265587,0.268468270903394,-0.016570997866994577
11,0.14082962816943756,-0.11702976191842097,-0.04242525649659453,-0.0038997342941003293,0.025436253325885574,-0.004875026594645698,0.11748602762797922,-0.024660549895101996,-0.12750295580848245,0.10959834661997453,-0.11768521370193885,-0.06042218668078497,-0.06982934136373006,-0.1714926060306407,-0.08384634800971805,0.02548937062212986,-0.1676932231640106,0.13059499126493473,-0.01337418677722238,0.017485000550545846,-0.021920929032269578,-0.024866564713089102,-0.027508786526838747,0.08397139890634875,-0.012703476986409501,-0.1434620586952335,0.06906890029135734,0.008514868128498984,-0.004711876648532037,0.03153951561790558,-0.21441087158144612,0.14775474612724177,0.12497002226101123,0.05612117306267886,-0.028887425452221144,-0.054682237721351556,0.134854619674403,0.1075060511310432,0.04809521554603933,0.07217446020222938,0.041891928557560146,0.09309718092141374,0.2551277869651334,-0.26861079923437947,0.08195613787853837,-0.02508125591679848,0.09833030823422131,0.08518702125213541,-0.1939977952072458,0.14079431537128395,0.003558484219372507,0.1864169857944966,0.16193286161349588,0.0941830564575579,0.0018839458229179262,-0.047242481094185634,-0.38413462954904,0.2664452939314891,0.20838551222437712,0.297222157270971,-0.013136345688020183,-0.01932250010219103,-0.014748990481778114,-0.020990113508706942
12,0.13357060980677696,-0.11227818403825222,-0.06501428191582473,-0.12603323502168434,0.008181004832239167,0.007511748254474961,0.12920807078722218,0.012025408637228008,-0.17035678091141349,0.21472366429250106,-0.03939703913179865,-0.17848977940262784,-0.15835936137045536,0.020776387764341736,-0.14190694360217992,0.04076500343546047,-0.15571367708611675,0.2348852270222785,0.09806056152668419,0.10307587234248744,0.10756323864142367,0.012072126916740172,0.06327905548717971,-0.033370848703172834,0.05036605731593123,-0.13981987835211984,0.1155443489564874,0.015735863596875597,-0.09198085133648573,0.393462207148893,-0.07329581996887767,0.22044772222427492,0.18950338781495626,0.13016608596458398,-0.05880433425010598,-0.03121891437104618,-0.1458949643076635,-0.16669285703659859,0.03394515113754503,-0.01612349665362089,0.01791418097410786,-0.02290380321263408,-0.13160928511063702,0.03779445273470185,-0.017685260933785134,-0.02372951910006455,-0.14122583592586693,-0.10405846674310804,-0.13308921685362868,0.008892309707144781,0.23233430344056344,-0.08504996818085375,-0.16628288228857274,-0.11162403135603655,0.14765690565598394,-0.013157482555018946,0.15757273614158834,-0.11627490577092137,-0.14149195430444372,-0.17433502335134363,0.1314835214805942,0.01203862644499621,-0.02886883600838655,-0.008921436615996287
13,0.13151868180971044,-0.11135449735035646,-0.08779013112964765,-0.224224520124646,-0.01619967203284237,0.023811197866936654,0.11009760373544235,0.05986434629328763,-0.09071315866295138,0.10899607384447231,0.09398258462076181,-0.10844770132200524,-0.06991656328132889,0.14187047819882065,-0.1006298045999569,0.08054420492847185,0.006879395434352439,0.20415438052447216,0.0386996421360202,0.010369636706388428,0.05909852195392291,0.01785224047860426,0.04069577742113002,-0.07671519820199255,0.08582778888632242,-0.12438604479305346,0.027842874119133276,-0.0051970036484803375,0.009974735249476643,0.14497321483403233,0.27894036955959106,0.027832371136840957,0.061496367922133185,-0.0555007821616944,0.0022397931122505876,0.13701480507687325,-0.04729128060935138,0.04067864122581613,-0.08559157517089751,-0.009453337960382379,-0.022485311181042106,-0.09818477156967097,-0.02341089582920676,0.16422999971797442,-0.018675774843355766,0.05924953219879983,-0.009203752055094964,0.037687364064303897,0.3963305531557849,-0.16004074180248345,-0.3083353105864432,0.0025493933376140436,0.1591875582547412,0.11134366426991647,-0.23527255770680117,0.03327701799835112,-0.030558330741149147,-0.0005723975327186666,0.06304878316927512,0.22322119099782947,-0.3545619946855228,-0.045667439942370915,-0.0022469750752728695,0.030722839857137516
14,0.13304472702694511,-0.11124405313248387,-0.09117876326487105,-0.24623516782018467,-0.0191618037573803,0.012165426202959004,0.02021018488946808,0.05324670032005702,0.040802505530408734,-0.08979755094599978,0.11124688907617411,0.03665207516852115,0.01790438526496088,0.0440218568712368,-0.02618346504900748,0.055320989180659794,0.03221525604304552,0.09964656865113175,-0.013093507185420572,-0.06601653247555775,-0.05270387942799534,-0.0024840167454946833,-0.015958798895014628,0.007215017834839466,0.002688537021837245,0.005355964228050496,-0.03984365054275623,-0.02151932476195413,-0.008285220024466897,0.04685526595794501,0.21373881132625577,-0.01484059554511993,-0.010042000360599657,-0.03274099089841663,-0.0868128222378685,-0.0707254312240592,0.20819142259860435,0.18372334495153012,-0.004657189610449905,-0.004187026875488078,-0.015853986892336594,-0.15649712344712366,0.1715635264626599,0.09409949554000777,0.06732731742899663,0.0014157903121098797,0.012126214953300303,0.0338903081872266,-0.024890550298492534,0.09080806438655728,-0.15756670475208046,0.22863331901361947,-0.2419268324165508,0.16950834051645122,-0.22067512215233065,0.06390429000243099,0.03195072686619309,0.06478946707659872,-0.03938626473778514,-0.15160361528123212,0.6128325364828757,0.06451017242784321,0.019151928219798567,-0.05796394147430768
15,0.13313396632096466,-0.10441428634423904,-0.08432537952732229,-0.22047391552289286,-0.01964694515010397,0.006072384098453625,-0.06613021180629014,0.03519287830799709,0.11982600459409432,-0.20677568229130316,0.06454186807048076,0.13145233104127896,0.0879854368750988,-0.07630359681837774,0.03086834854085513,0.0049046975590345265,-0.016983504245619646,0.020798933436062837,-0.0338913053578187,-0.08779667766830998,-0.07925952695956716,-0.032091483461368,-0.04591985423120583,0.10503827110910388,-0.07156005028654516,0.014247051387592387,-0.01163534343282649,-0.031827634266444034,-0.08026720150497842,0.21378814607307256,-0.13473106164035492,-0.02325986239630199,-0.04753376921015682,0.011528895354283065,-0.1662123759781054,-0.026095657926913554,0.05811837598776705,-0.028454830080836567,0.11117204184298966,0.020384636152119225,-0.016265537842224717,-0.24599080152375682,-0.16202974643088988,0.343549896718662,0.06806506277090453,0.06243285463378021,0.48966934530657935,0.2970719593773956,-0.12088531266306307,-0.001838985876734603,0.17728920754572708,-0.04187484552970995,0.049831193239296946,-0.034603939113295804,0.1729034937482676,-0.030592138826043072,0.023584505987413913,0.02381534110398094,0.00686944059349702,0.06291905598805284,-0.17919914909352733,0.0022250706102045544,0.010133380433802436,-0.0152701655920022
16,0.12866031692856209,-0.0769370163400627,0.06165571529115412,0.2059627918594458,0.06573432863573084,0.08501756925524374,0.19161255868230936,0.05224945019581127,0.04457603146908726,-0.2504970501725946,0.17482372786403344,0.07191016516871898,0.02701530892113782,0.14389922608595118,-0.2753425769139702,0.10197043505734563,-0.039580474801863136,-0.09880794383979974,-0.13780920598179303,0.2946113142568961,-0.0016388372266035733,0.041289759915401375,-0.018815351399692565,-0.38113546155806743,0.1555063310916508,0.273181612843274,-0.043193837009234515,0.04479776032163311,-0.06097837105473006,0.17919099568587782,-0.20913340498097746,0.016755464620161475,0.03339889987590097,0.004780419208181747,-0.022504522452231033,0.2415596421194437,0.0918472665677823,0.25554975366318183,-0.1020814855674003,0.015996233131975388,-0.009622267485075511,0.05975498111439488,-0.04191967440741318,-0.10200271812195633,-0.050829221981780526,-0.0405746008989522,0.10446678630638118,-0.05308211515837902,-0.03724645742920803,-0.003292722860279748,-0.006615308182352994,0.080304541470625,0.0963994010581587,0.056620338008918594,0.03895974772447228,0.0574202277535789,0.05206539420250043,-0.035735741581816166,-0.12337478592807798,-0.008633222537705178,-0.0023082856335191193,-0.01832979959792296,-0.03739649858469504,0.02816927738670591
17,0.1337331546113394,-0.1083877320522563,-0.003365792051086028,0.2212876546084667,0.041847793027885424,0.014390667436276655,0.1461273776300003,-0.007126044927160443,-0.08608480055133999,-0.12671644367927293,0.08409269318512821,0.14137698723488473,0.1067910784790353,-0.050068076911605086,-0.11164647860144565,0.11440835474197836,-0.04224448565070976,-0.003707340069164705,-0.11594283044844403,0.05188987402791334,-0.031173039210442746,-0.05060358839284462,-0.11159043354814288,-0.23158120443012423,0.18351729633445032,0.004757770859719054,0.013907255834118608,0.009433813089884828,-0.024748510914991563,-0.01987689218653469,0.08586942887405122,-0.07220431610807926,-0.11546181604043183,0.01920324051566186,0.058960117951446886,-0.29735460785892454,-0.11356578678978183,-0.19181362707956778,0.08800966477037919,-0.03389578258934218,0.03755238295759417,-0.10689533383796421,-0.021743523263880432,0.08643066986178032,0.15314766102441407,0.14125922760234433,-0.31060465681790667,0.25806054632805736,-0.002893798675118603,-0.006339029168303097,0.1234799397981514,-0.15190047977227134,-0.16509753687421821,-0.0963733536187385,-0.17376603517469166,-0.1267270386326519,-0.1425230280323198,0.052139082833872946,0.2771083831522986,0.0008089656209764543,-0.03024197951325109,0.06948530709967263,0.2245741991802794,-0.06558483929575282
18,0.1385146762412364,-0.1274035116244571,-0.040825763635940454,0.16647373670426321,0.012325661907751473,-0.04844658273719729,0.03741511243478445,-0.03898476441446402,-0.08527272206060506,0.027525489839229866,-0.01859822873149758,0.05336755799864901,0.049174055204076916,-0.08302390252993097,-0.022911828248793883,0.06355691540358299,-0.027647278898638605,0.008511213142821106,-0.11396821976126376,-0.10571745610264344,-0.09537152509267635,-0.06031171781701988,-0.10149506917837568,0.05767782074887551,0.018751722826436862,-0.1357719179594135,0.009179612937689638,-0.0011549557986765269,-0.0050941366837238405,0.020212730188561595,0.01211704985950102,-0.09253680973519944,-0.06925048581543906,-0.03528994949791722,0.15099491685516667,-0.08431509808050006,0.054436247365993264,0.057224356543195555,0.03472398559114062,-0.008407657649721886,-0.01621778792776111,0.06185335891826623,0.015441797284905023,-0.005653056067905338,-0.002285819012568663,0.03505751756436706,0.041310675845461435,0.0800217814655444,0.050177241105305845,-0.0049476365030663785,0.06308604301485123,-0.2075683417734743,0.011744489353724645,-0.07284618962600056,-0.21144398493949995,0.03609854477530797,0.07943528108302333,0.05262532310467403,-0.11415346166208355,-0.08888375504827385,0.035428531418253556,-0.18478489563552994,-0.7335598120548252,0.2520996721464899
19,0.13706273462807997,-0.13382482533838205,-0.06545312692913414,0.1212933853706675,-0.0026169072509686004,-0.09206001512037737,-0.0596327698969736,-0.03813543911071696,-0.04010095012054382,0.11440850636291419,-0.05502121166225082,-0.062248529266590524,-0.04562906981286072,-0.013179222778157251,-0.07528417040218491,0.07456465654908662,-0.029206655302567663,0.08190068455210722,-0.0923293947328811,-0.11013785018774741,-0.11044849498254744,0.010260095570641968,-0.03601490348778036,0.1106607769644353,-0.04992030458674217,-0.015674773410719853,-0.022965478438960588,0.04470902294126601,-0.007473023146575303,-0.04875641648383944,-0.2127161569754746,-0.15776668674735053,-0.12441837780203041,-0.05530245878113167,0.12377571115542395,0.11106369762028828,-0.0628472143490593,0.06319637175660692,-0.06378562758126888,0.020000840270834572,-0.02687177239460613,-0.05941190735314551,0.15105026049154538,0.005635753188106191,-0.03615640746014568,-0.05409096664409767,0.0941189842940704,-0.03450316971781828,0.13195663418540443,0.02178798921589338,0.05130402766531342,-0.16377019290403796,-0.14861592054195227,-0.15817500491524336,-0.20551484907720513,0.015086257972386989,-0.11229144089438019,0.15282186478931667,-0.5815541213109066,0.025089583992585554,-0.06718247946265914,0.1405763972706058,0.32679982622006465,-0.14513846180475923
20,0.13338329261840046,-0.13545871334832632,-0.08311811540797835,0.0518491176880647,-0.015381418943101138,-0.10041322688038126,-0.11243829295885732,-0.015506509915978448,-0.002183129303522059,0.13823079580073644,-0.03712936128861164,-0.15542848690446193,-0.12140866998067315,0.06750652988252331,-0.16168458605548944,0.09872619567452817,-0.0392871395175802,0.22076990642615524,-0.06693285984500652,-0.07959891233347643,-0.1361167037805547,0.11140953879126703,0.04186136847116663,0.05493670523327138,-0.06949030415427168,0.16850907455506509,-0.08404799589777237,0.056769658005376186,0.02129973832941111,-0.2551534212189883,-0.3190309763173024,-0.19288550439254187,-0.20492991172921426,-0.04028180384222026,0.01852451186665455,0.18981985187945943,-0.18580262924580057,-0.07390853194396571,-0.1043123090964343,0.042784408450254136,-0.0362440758012066,-0.2748729871859489,0.02381835547574758,0.11949670477529548,0.028130394183247937,0.04635830671605897,-0.15826015532914553,-0.02480754854289193,-0.09160664252781459,-0.008647955993203123,-0.026322211090283973,0.17938927677124414,0.08742623666402498,0.14824730997467886,0.11023903554292697,0.008121168800055752,0.12147115559841791,-0.10811655601743095,0.3077205755468765,-0.11755110788463088,0.01908118127480387,-0.07164148898565115,-0.09851162548716896,-0.004473284272313735
21,0.13476330408121207,-0.13059061699231345,-0.09573442080802158,-0.05763336845030886,-0.022774854552714878,-0.08105295571973807,-0.09325462759984149,0.012528600531757823,0.033969672214357115,0.06442691369829373,0.0026770951212945204,-0.1302127496962429,-0.11497597802745907,0.010819342029965706,-0.14933327313357586,0.06748730992562829,-0.07929756139450536,0.2299351757342681,0.03766014447832669,0.016600316157479145,-0.03926961320748253,0.09112116358529279,0.08058078145105749,-0.013998366445376227,-0.06290770463875121,0.38054512105604393,-0.07178464973109709,-0.028553104921999195,0.03437555536143573,-0.17555944578661842,0.23337413965002263,-0.12993014803465752,-0.10754767994909942,-0.03427563198604276,-0.12560825044203602,-0.14664958755931976,0.13199923769208402,-0.07375687547082146,0.1270124192450253,-0.10470489433518844,0.02918286001790551,0.45586483206996575,-0.3669292184771365,-0.1303630347122074,-0.06162096749262317,0.0006921656474289661,0.14098975675270373,0.05576464793705081,-0.009801447830785952,-0.04496149698092336,-0.006760282695670597,-0.057665038222560985,-0.08012398111146578,-0.07228140289363541,0.06361232923812288,-0.012054424679779758,-0.09149767637949752,0.025394357425677534,-0.007878576052362675,0.10629532650100477,0.056483307813103505,0.02577520402232617,0.01903406773232652,0.07374365201999641
22,0.1356782916304302,-0.12354514053920927,-0.09492604624832725,-0.12030181970103343,-0.023224081127672748,-0.056915085973037544,-0.12850580495743386,0.028594452782169787,0.12471851174396242,-0.12057085060888653,-0.0010600423297104236,0.00995137479608077,-0.01763593224826404,-0.1026571566702648,-0.03037312598075824,-0.002700894242407492,-0.10424918065468314,0.09649914961245787,0.06467292079362223,0.09731995622751469,0.034574493707190304,-0.009041082256469934,0.005659971514329204,-0.005832064821869903,0.014928801398778668,0.001990738919574816,-0.030894962226874476,-0.028218505254811156,0.05939003446750932,-0.17675152839883246,0.07463992909843302,0.0657186283810664,0.07865657344443104,0.03948513746471167,-0.03936000085134314,-0.18872852146857508,0.31096996396286103,0.31213673763322275,0.03207967164600637,-0.03812619412449045,0.019406758575663277,-0.15909743969908707,0.10734520244069995,0.016346241328580424,-0.02408598520441839,-0.058328394762622825,-0.25516988483247527,-0.1648957532955911,-0.17105492098322114,0.1707761157170819,-0.16023574230249793,-0.24034467519630615,0.153114892016195,-0.18425709648522287,0.09908984478946889,-0.023784336125846232,0.03883595515270248,-0.023807116682349447,-0.027964526310997148,-0.31103613730045415,-0.33373801847403295,0.013276583517796314,0.04274078521920904,0.005419657865094074
23,0.13179124361346736,-0.11484898767477425,-0.09190754415086486,-0.1529360836832696,-0.02798091346615396,-0.03750796002415835,-0.14849610370615304,0.040004525039169285,0.17707812159360836,-0.22484611708639693,0.02090741548698712,0.11591739224296371,0.05844482337425533,-0.13878301830840256,0.026873422215290377,-0.06068573638075658,-0.06962568139006015,0.018417595450242803,0.08550253175532371,0.08840297485080828,0.12724396496073886,-0.07392087732621194,-0.02005096285503874,0.04425284581061166,-0.00958353255842545,-0.15367304537493015,0.03090944520905442,0.012223531265902522,-0.11837499287312227,0.16048755820963975,-0.03497612894396275,-0.28943648665459126,-0.2367545293172837,-0.11377122586122716,-0.2638996244832211,0.09033881938601007,0.010253557688328233,-0.056471865919604874,0.0415264066500011,0.0059408804746012445,-0.029267384810358378,0.08100859841568223,0.16449951774084293,-0.19208997825864552,-0.08688568240378693,-0.04011212701821751,-0.27328560020579734,-0.2106670119803332,0.2428069015370782,-0.19762729830789794,0.31221603631353473,0.009691206314544258,0.11185382131878076,0.03364465619481541,0.06197337577464432,-0.027727573815488647,-0.03327946745846597,-0.0391468971358508,0.024116299898653187,0.13561400012323618,0.08193984187599138,-0.021439379064530396,-0.01012854007529218,0.028402367074634546
24,0.12371585042997217,-0.09986518525898316,-0.005527396340465577,0.25813309122232986,-0.0004893787308985295,-0.0280301417483704,0.07341889023224328,0.06407712032532327,-0.17637768043408225,0.0003770041209432315,0.3383166754251888,0.17272424134030714,0.247484398315372,0.015796864000815813,0.2604390538819692,-0.10762189162346994,-0.035408644389464713,0.2605803746383172,0.30466078576456035,0.046761397976156166,0.13163704500583817,0.07060996024657072,0.14481861783100675,0.037740741681416,-0.06570728680572155,0.1451227386838781,-0.028934286838356194,0.013494154501729208,0.04840717590911478,-0.15569433267011534,-0.04734813338565305,0.1295222462342333,0.08273060071458305,0.03439747489025413,-0.2091616504040578,0.1351105506632289,-0.06800578333275645,-0.14292745603186835,-0.04055167866687312,0.020045316872567293,0.018434408929023368,-0.041616339873833876,0.20733096042182553,-0.029993768508051653,-0.0211152245673603,-0.09058267299155096,0.20976522713833473,-0.08437044974166699,0.1276263057363841,0.04588293864280113,-0.04888631793498527,-0.13690166442141938,-0.10745437776812244,-0.13234243094854226,-0.02336305630424665,-0.07039496514685312,0.01183536642302948,0.03487047413337463,0.11794693984038135,-0.04835916918560302,0.03389822002395061,-0.0023897847163254805,-0.06320931568118052,-0.029868679994084657
25,0.129864755221678,-0.11861047740902049,-0.03512975201885908,0.2443550057623046,-0.004254305543611876,-0.064420040844203,0.021391627098228262,0.004449186751759008,-0.15299971160169215,0.05843445834221225,0.1948757731142922,0.13749282788633538,0.18981372808992578,-0.0017648889717701566,0.20749610517860023,-0.04798509745878701,0.004852298434498366,0.1144907048519187,0.13929595054459923,-0.0618033078128265,0.06185066675374276,-0.024527734788344302,-0.017307817111826274,0.07094629390546035,-0.0361620389781766,-0.07071837617263872,0.019257791067876576,-0.026005445646379022,0.005239312021912079,-0.01568666536442745,0.08151577225635925,-0.029848857377406543,-0.012654704272618084,-0.013209382090738605,0.11445042734045832,-0.10214310936321695,0.02972458649565415,0.04523453179779029,0.04700790761090701,-0.04578211605119071,-0.01791533449499643,-0.0063224003937838395,-0.22564289660347986,0.042578349360748884,0.05958810703711428,0.10672580144420818,-0.2261645983751122,0.054803274208804986,-0.23897894311402396,-0.04842950571581516,0.03309605230871854,0.3165602803054388,0.2490373462793681,0.27071252856445793,0.0951272328328106,0.18872708283937656,0.048896601964668523,-0.06700389062210861,-0.3453404726760446,0.10502956561304976,-0.0460877322116508,0.01646114773175938,0.12867864626605235,0.16419261854744419
26,0.132675884916676,-0.1290856998743758,-0.059740679541411414,0.20688528843787438,-0.011677501050928418,-0.09997604651791683,-0.07383966965796307,-0.0377870901994301,-0.07496233148515397,0.12406086512191006,0.04831539907812572,0.026294148015196576,0.07509385330155503,0.04698501490483753,0.10877517675849324,-0.0030672406440394873,0.06816612408549258,-0.08283420503029415,-0.02111359899945825,-0.09312153879487498,-0.02840414095811991,-0.05967829539046446,-0.08839623778161787,0.07964613104679208,-0.019365983822680094,-0.12834428173980972,0.021566699510114362,-0.01934771343552945,-0.04509497828502103,0.20892680800342256,0.05977319367415426,-0.0899822684839851,-0.005374713034796051,-0.024849331478189584,0.180653736520488,0.07118618775573378,0.1540441537494911,0.24681469762600858,-0.031983109255856595,-0.005183262793580971,-0.0588364159248129,0.11025343061097419,-0.265813300853912,0.048347345307533915,-0.14632780408057727,-0.07735036347453056,0.015301441965525776,-0.15338682287641464,0.020422644792838535,-0.0014153107292797784,-0.026613181193136715,-0.008574965650981972,-0.08321209409898081,-0.024061213940037393,0.1127170285388097,-0.07962789541288393,-0.03997053282201575,-0.06355824747188533,0.2684452908275322,-0.002150970329752331,0.020546698124096055,-0.09565991006436377,-0.0265234419064167,-0.6040612573147807
27,0.13140605003201392,-0.1315455105695901,-0.07173849430160288,0.18129770832318748,-0.016270758491346963,-0.11645698567263099,-0.14663343671876375,-0.04520966781284758,-0.007683476960273329,0.15386923179824588,-0.013730414656185075,-0.04459973641694409,-0.005669987988969781,0.13008223659900325,0.06522623852821673,-0.01093613756033382,0.13096730947164886,-0.20147139692193278,-0.06129528089873218,-0.077353801355991,-0.03471411625656845,-0.02074088150039179,-0.05277453369007995,0.026602982751268517,-0.011506596033489996,-0.07615532222441325,0.002905831894513239,-0.018602596741405478,-0.05793750460700589,0.21324419004020786,0.0341919954713969,-0.005969608228378165,0.024659897607545,-0.023234302312746632,-0.009131880821955277,0.09234800156827308,0.0432133774051417,0.11426597120888973,-0.0621902209218923,0.010028909589661437,-0.006405612854899417,-0.022949400703415557,-0.021917183048041106,0.04392774390472286,-0.07368611081478346,-0.07970131162062476,0.05479531184297752,-0.10028336847596352,0.03532525204184517,0.04235925884399383,-0.07813762246305019,-0.033226396416936116,-0.09810737334287878,-0.11388990056076399,0.11871543206406203,-0.11787281531642743,-0.09538698716283417,0.024916001979825617,0.24464698502714013,-0.03704270918672087,0.07047485826629442,0.18882072076043768,0.227120110772022,0.6583422656824403
28,0.12627223066449478,-0.13002394967672234,-0.08502050455229816,0.15103917821862187,-0.02115368898558211,-0.1277832861674049,-0.22457496154285506,-0.041378523463524865,0.050954811801456806,0.15891343207638076,-0.03387424988455246,-0.09312843395488804,-0.06789389539967726,0.2254208015952564,0.041185683498648616,-0.04008554777246795,0.19235503085728123,-0.30568399460596446,-0.05584307819621845,-0.014980477155433103,-0.004360591906539965,0.03218734147020652,0.027615334175034784,-0.07031593083698502,-0.016726764639781955,0.10335378275861709,-2.0605776273274756e-05,-0.03597444006152154,-0.07164032671635764,0.16818230053296307,0.12238840034760057,0.07925929139010572,0.011880571153880831,0.012450936160348057,-0.4066669016938371,-0.04335093067605271,-0.05209995051703489,-0.2210715682574972,0.09813537170087205,0.006668661249764626,0.06222581014197345,0.03606103963141427,0.19188269960442858,-0.13479945563024057,0.1204994018521588,0.06758797133000556,-0.029743210702116933,0.1417299622269699,-0.05651062819735482,0.003107073656475827,-0.05409717012975833,0.11524388288496355,0.1074861783374763,0.0839339880813341,-0.07033054879378832,0.0713793760845788,-0.02969051239234513,0.141028114109844,-0.1113130882720678,-0.26400125549627085,-0.17556416560713614,-0.05177767107143016,-0.09695299453402505,-0.2036071243307676
29,0.13204796032962002,-0.1322741928186623,-0.09057764270578399,0.07436564005138059,-0.02348968014599294,-0.12119917319007797,-0.23056208934008376,-0.0238643734291169,0.10500804592246031,0.055335582188244775,-0.05624323582134303,-0.06681169575438409,-0.06632998107860469,0.07892738656443153,0.0026153426575406236,-0.048535997208234455,0.0712690954559857,-0.1851014108836404,0.005560191454352742,0.07722758489833403,0.0299565962599668,0.025770530983917475,0.0506496021422011,-0.0956921768133236,0.046227601443474584,0.07121945576097925,-0.018872056257413283,-0.0005091938175540434,0.0728479861902405,-0.14650524286698025,-0.00530872617361966,0.2097029357510283,0.1474404196156734,0.08116572454095031,0.02174585105617316,-0.12092176735616457,0.03541307304110032,0.03782430905792125,0.015072554386450054,0.0015350615861577021,0.0021701238623551486,-0.18033924965336992,0.10526245596826328,0.04945298894141441,0.06449938577508246,0.029881382606404785,-0.021494424109636784,-0.00299363596696757,-0.015588667792733858,-0.008602909947395234,0.07672902570399323,-0.21547500480289392,0.03301933930452072,-0.04173901693885806,-0.022038415647909836,0.017278805345819076,0.20550526166947658,-0.26108032523643093,-0.04957939273090234,0.6220008719576653,0.2170884893356027,-0.0717843707666893,-0.02971217890488296,-0.060249452285846244
30,0.13320936448511264,-0.12794415664440018,-0.09333960416636297,-0.003148037146271315,-0.027709922069008262,-0.1001538335059473,-0.2141937113905437,-0.004509280579027091,0.1610989302097808,-0.06582862387910507,-0.07001627599793543,-0.019334094490150076,-0.033051740496952295,-0.0701849320522656,0.014142669784245505,-0.07669434942593444,-0.0605216813060204,-0.06734392624185363,0.0737281351096773,0.16415329632360112,0.11040981464920951,-0.01125239102060252,0.05586240837535977,-0.10916484607930468,0.07530956092889643,-0.027044376191448533,0.025996994605082438,0.011520620552914175,0.12890844711820648,-0.2288748476288684,-0.0012733357198705109,0.21964440593615914,0.20076042805539585,0.09253902509253879,0.3405602790252753,-0.04842859723148378,-0.053783406099023434,0.015582516194986948,-0.04723855667758661,0.0028668704312269115,-0.0017946284175412025,0.018013649857628385,-0.05523647065048354,0.09455188489761918,-0.055833943894416996,-0.043202757278928056,0.1299975339606157,0.0518430644481343,0.29970272523303076,-0.182000325949184,0.3307367566508249,0.26485434012081893,-0.08428525478564582,0.16437795301401908,-0.01039520785768247,-0.016925144728414165,-0.12402029465950841,0.1529698374859268,0.021595210812109022,-0.2650639050419272,-0.03994069318173879,0.04197414871839136,-0.029071731663337035,0.01558505649414721
31,0.13155311748802193,-0.12061787456057377,-0.09573597885400138,-0.0792813685202909,-0.033051568753404044,-0.07389548977255113,-0.20950686147903375,0.011147117455513566,0.19558027623058424,-0.1767217943272894,-0.039721749449708785,0.054576806195280686,0.02568999182757102,-0.12629015811812236,0.009009387393856132,-0.109727668767293,-0.08037616399918801,-0.02974038837108675,0.0996252238309498,0.16437345532104874,0.17707025163765994,-0.06235980248527581,0.015828203455370615,-0.05963940905872381,0.09006143733724455,-0.20088151106765492,0.06369899922215028,0.03880307406219534,-0.018394462580722883,0.03440538550229322,0.01072773433447431,-0.06803053800964082,-0.058377583726604565,-0.067603170961098,0.22061176059442322,0.22304320375111647,-0.3037418924182801,-0.19833305256698291,-0.1217083510391051,0.04648846262617422,-0.005577142650923184,0.16215995487233295,-0.0924694347698426,-0.1045454972886341,0.07402497791915261,0.05420950393340725,0.07923569673996006,0.10021870206237699,-0.2971479202419273,0.20819810045128523,-0.4169964967813856,-0.027959084991635227,-0.09181133655872323,-0.06490827996694447,-0.08229853573530521,0.03996808709240386,0.03301255366646137,-0.013696576914558084,-0.006067527672346973,0.015522871335941598,0.031217654059551236,-0.01383225559004744,-0.0049861157399310185,-0.011836268018556362
32,0.10895580700896451,0.1654534008685494,-0.14949212804099393,0.021368926284977476,0.195670909625215,0.14792076337921503,-0.13473794961964133,0.09049386596159284,-0.14165267516770835,-0.11184201441980583,-0.18165525398465246,-0.08589274593528938,0.2092321607650136,0.18984479059137788,-0.039588619112263024,0.03924235722461166,-0.33733406114134323,-0.14452781867283868,0.170037587034498,-0.18076321823649102,-0.08301509211951513,0.04221078321687709,0.04988301606598686,-0.067103479076636,-0.07166266692147077,0.05286740235340073,0.32897142994485373,0.17633051274542896,-0.023028588141688344,-0.003477430264624576,0.018292229827291034,0.05135455327973655,-0.03456319067319719,-0.16125932599063456,-0.031501841146407694,-0.0813338969885061,-0.0777266161318327,0.07901637214614063,-0.11364517993121931,-0.3154412120738004,-0.2703431150166896,0.05207355419412167,0.10094429306581074,0.0632869920908872,0.003931609377310352,-0.05868868838869274,0.0052479477909718785,0.04911974990024051,0.0111022372342411,0.02186499211304535,0.010619898568722322,-0.019729091211877596,-0.024658910687352903,-0.028457560051288605,0.06109402281940976,0.2543357570311152,-0.042522286883283175,-0.016744910911523844,0.06019453115086354,0.004059193430697116,-0.01002685303260789,0.02419864902236969,-0.006650312590351065,-0.008090185465039035
33,0.09344133312193559,0.20309057661174723,-0.1673191123934899,0.021629444978778535,0.269319175434524,-0.0020579328113690333,-0.038314519171374774,0.16851665030055615,-0.03960663579411076,-0.04748147127641552,-0.10696554558539105,-0.27083806876318633,0.31960833812499057,-0.02227511976066939,-0.07594719075046302,0.12030236175037246,-0.007389326755564838,-0.06144387048037327,0.16910853116732583,-0.025367508956929408,-0.01918050438570529,0.11526167660169287,-0.07261091617451838,-0.12038370648194227,-0.10465993518690685,-0.09421825627232044,-0.02573234406021324,-0.3003945056144257,-0.15213811939114869,-0.08705156665247082,0.05171688705548948,0.07917104849113155,-0.21363645700404435,0.3131198617632308,0.04924556513047244,0.16764034725373306,0.07553492371839318,-0.004956028440071834,0.2205383942162896,0.35156811678734845,0.13319115283036118,-0.037224261121475644,-0.06773592609233006,-0.020137830511257344,0.02698160850796944,0.04533197479740533,0.0015326898098438069,-0.06318486762207891,0.020948763149853167,-0.020738585409659976,-0.02083784522527249,0.0013318024097421777,-0.01621298845440347,0.002745111459731997,-0.036979488625135976,-0.05561247424328178,0.004160179214453712,0.002294395484740093,-0.033867705491043315,-0.0015072139179001798,0.010736398735293046,-0.011845567295034984,0.004701455629013218,0.01429587424694505
34,0.08602537463363422,0.21021645483019277,-0.15130437568009078,0.004351028162176586,0.2949911768111428,-0.18663703414461869,0.04700063302870737,0.12134218407579325,0.028506223631326773,-0.06398244492185079,0.044243602911143105,-0.29422341823513837,0.15283924772036622,-0.19786839958509134,0.04901270496773196,0.07845851533812401,0.2840767444752831,0.08778061697564182,-0.08999845387824984,0.11560946786623,0.09715847122359988,0.1264411303906025,-0.1875573565909488,0.001958122375706167,-0.10127248153011939,-0.0659467362183224,-0.32104418035752597,0.10316498848471983,-0.0701398560393397,0.03537252282209721,-0.03923456309817218,-0.148097343072905,0.32655441269963936,-0.17494811060986198,-0.04150602372953399,-0.15557451836860103,-0.06065254368188422,-0.04495073007641873,-0.25336157085421085,-0.22388989962210631,0.016625726187445535,0.019115473367895056,0.02584181931157768,-0.0152882201742112,-0.01982850707426674,-0.046711333951193174,0.01653194267118102,0.05496124454256742,-0.02530291648668555,0.0011023218627839457,0.0272791360019239,0.0023166660861769772,0.017982498943471342,0.013617237652348652,0.01802148792882171,-0.020381641682601315,0.012331090029160469,-0.00012311748591108118,0.0008277581109644438,0.008398110789969132,-0.0024490471286112963,-0.0005553310511393836,-0.00845714358593476,-0.01508745470793844
35,0.10378225653508474,0.18494713796924717,-0.04035670557134608,-0.01734162653341014,0.1692879504181038,-0.2733713491222211,0.07378071910805813,-0.16516639191959367,-0.09645795161047525,-0.2422718566131175,0.16737549951025663,-0.2473767049952803,-0.15836350702015847,0.0477903823415863,0.09151134807783229,-0.3312578329854924,-0.009994520302641093,0.10807709477327287,-0.25634264746929514,-0.1164144389578348,0.16747949314558788,-0.19609503270631085,-0.11602953022981967,-0.06867920193032073,-0.09731680540853255,0.08172053419665606,0.10530962116730395,0.15337349545042517,0.33943542649788283,0.08388116946392499,-0.007001489517988985,0.1627462057845036,-0.19705655516236245,-0.021525522907388017,0.02231391134918307,0.03329019171043272,0.07773343742111258,-0.0503095972199847,0.12401539292244868,0.1460996895735473,-0.1710348779329707,-0.03368428306877836,-0.024442935315648916,-0.039799124710197864,0.0018141557841007128,0.10632871779505342,-0.008638190639308485,-0.058325052354567974,0.030288153891054437,0.03506329247204913,0.00010037389887929474,-0.009647362621448396,0.000588491071167041,-0.025766458636712217,0.003459077842638633,0.03634287704976469,0.0017741565938522441,0.02657019816938569,0.013528759947496527,-0.00815747894567767,0.00010492881729278619,0.006421641902605184,0.0130117861915411,0.008071254486928303
36,0.12247867948486547,0.1193362852877406,0.12253081854452964,-0.06504684010024582,0.07166646985835272,-0.19727564691523936,-0.021684832464918865,-0.27778379607552867,-0.21080003324579924,-0.20047387568906136,0.053533888143497514,-0.009279038040283544,-0.06629835135815229,0.08800891608676707,-0.15684882755820917,-0.30831086977470085,0.0037605810907560327,-0.016527414918802337,0.05457721994017167,-0.04748333933709706,-0.022017585746668414,0.16611509261087049,-0.056642301856522914,0.17081856882894783,0.21474446534440772,0.008800029839157286,0.15899082504825732,-0.16439724046960685,-0.11891538396844559,-0.07603244898341573,0.03015465687034291,-0.13391929962875526,0.0476918773442145,0.10480014114657185,-0.05869819276294551,-0.005246728203405656,-0.19832826698633074,0.19474747274424925,0.0012244256698590028,-0.10420962482648591,0.36302066916457476,0.0650798547649649,0.07101749022538666,0.1199341516148203,-0.007009790016132722,-0.27866309295870695,-0.0012838586039083388,0.09747027035557013,-0.0853423008912939,-0.13435422383887197,-0.01224944597964002,0.011432374725125816,-0.004659992334699381,0.028118105255437092,-0.03968017012771473,-0.07426749865332205,-0.07560222811915479,-0.13247193606167387,-0.02284371834642923,-0.007462262504138312,0.0006609451592981264,-0.04702023643135943,-0.011072868923080736,0.001192723854127789
37,0.12789989765751103,0.08111951124212999,0.19490607829643755,-0.08735013785149177,0.07822968943227351,-0.07142879837443052,-0.0952449176051064,-0.22923504766320865,-0.1264971604241286,-0.02377325674007949,-0.002018775612644344,0.09035602214456004,0.10327923477891834,0.048287575159150144,-0.15080422061615248,-0.045232973572373346,-0.0073502906712946394,-0.030590912593276804,-0.05022906319860451,0.016500346606074117,0.06447764152209064,0.18538209959389246,0.14942965799267652,0.1381571075966267,0.15098240530649926,-0.043160649739672347,-0.14375253778361793,-0.1553475882403228,-0.18696206835052864,-0.04318148656575921,-0.018112431803438633,0.08466876129762055,0.04666248187770342,-0.16598646877085788,0.06838052139724847,0.05978910661244628,0.06338037269624669,-0.03879729803097755,0.12117050080110156,-0.14213593346778017,-0.041774194575989895,-0.05425728860722827,-0.035371132484423785,-0.07431685156219639,-0.2070662289162394,0.4206563801306147,-0.02667151624571083,-0.0695849776519826,0.09987645668313552,0.19592562591624388,0.05207772709766623,0.07444737633434337,0.007134712333422166,-0.12583168463334266,0.039465966081473264,0.107739668106133,0.2520453075839535,0.3262804017084805,0.07310601722289911,0.06856808220821883,-0.002423420959580508,0.12984181257514657,-0.001547914531380326,-0.02800525631303888
38,0.12532147955587244,0.06746561862714195,0.2167009853735184,-0.09403151006578403,0.10361481697998437,-0.0005499528631897951,-0.12359951370594426,-0.21132863769876614,-0.04178708893044907,0.10293027035427153,0.0080893005152402,0.0967514837978477,0.18571273064613358,0.01672938249767687,-0.08991795179489445,0.08085850052108065,-0.010055674319501662,0.00701013293850306,-0.14555524456258662,0.13795100745691333,0.0629046499476556,0.07289918966458872,0.2355506546463892,0.050304062728882035,-0.0820270637126974,-0.06701027923731656,-0.18165959026825107,0.008827617870652364,-0.03601400679778549,0.04630011420360801,0.008744313634470868,0.1725050458021068,-0.13260570901661625,-0.1393471020593725,0.09543241550198249,-0.027167310439599315,0.09261305952417588,-0.10989600933809304,0.08869488029303567,-0.05514137983006463,-0.18851060516096751,-0.11668397843982,0.018176580338193637,-0.1287527984267115,0.0012960530667348868,-0.08804863542095921,0.08728751855585672,-0.017957490682029176,-0.0903600458409829,-0.17076190939875868,-0.06307300172057345,-0.21300011187647144,-0.07887323893983125,0.291985338760303,-0.010868426415082812,-0.06055367597067357,-0.3114535702922767,-0.2874065635449807,-0.046431707418086665,-0.11677234521996019,0.005365714521238157,-0.22834826755789414,0.07008179337912983,0.04802522507408282
39,0.11963162068929752,0.056817150174771666,0.22872674729416323,-0.09089007641538868,0.13904422433665756,0.051725029424505985,-0.11021447013863836,-0.19980972276423983,0.09337355566184535,0.19154025693847068,0.06121416719762553,0.054538276022344484,0.19661889286661746,0.05341262329216646,0.03105726220860953,0.013447844765787443,-0.03889722939302414,0.07470136414852224,-0.16768902252792814,0.3132656867672273,-0.1851490687899329,-0.009004229682109363,0.062059731570954374,-0.0721679370518109,-0.3187153674642964,-0.11135203979479719,0.17497631120215687,0.10563649240167688,0.1740960992084968,0.01480698147938607,0.08960335270794656,-0.16272458563978934,0.01260072887660095,0.14638664640041413,-0.04284577995333194,-0.044188612484682074,-0.11527334979989412,0.10315114683054194,0.0024894339149151012,-0.02605753228046056,0.08681623530498797,-0.08810558061659364,-0.14603480311526157,-0.1136234539651137,0.3237635728544571,-0.17663062131403628,0.013030953765936687,-0.039353444372912716,0.09990829547653213,0.06099408671074949,0.023547565742384965,0.11290358881425647,0.05906696040243995,-0.16080815886087485,-0.01810053378909729,-0.015810913722803105,0.1650646045584081,0.13572110614363198,0.024427507343547664,0.045838428994954994,0.003977953944762334,0.10657049441897831,-0.034566058639710975,-0.018179267546092566
40,0.10610555323113335,0.17896930541426,-0.18161509374799117,0.03699869773291696,0.1373390456479462,0.21510391413043875,-0.15016702631496015,0.0821806723822156,-0.11208647286727978,-0.004370492918517352,-0.1213258964647068,0.12430045720463535,-0.009878918767559591,0.19073158861519882,-0.00521765760464057,-0.0728520563125891,-0.19324159118550885,-0.008225992704509367,-0.0014425800618521334,-0.042059790491844794,-0.01792932339623965,-0.16384590598391663,0.11294279669938528,0.07554925054303896,0.0941477422782715,0.04444060107856243,-0.10560808711634444,0.14155681784285917,0.15415959739588633,0.04930397564495523,-0.00631673767082554,-0.07235370889586458,0.10442203373276715,-0.1702684793785776,-0.007347154407669226,-0.034659793748038986,0.07471343553385984,-0.052668249470473244,-0.061762167809405855,0.07953487916963302,0.20431459035212599,-0.035295881177195426,-0.06994859750589251,-0.04758310335023275,-0.04589349141281798,0.09381359179145676,0.004071250076266991,-0.01788281437537411,-0.03867490808540641,0.011428047842991791,-0.010625924712399926,0.08935580122416148,0.08541716648243808,0.06851918009157845,-0.10141579649993085,-0.6323795102394967,0.13124823815565412,0.01777411519092982,-0.10865271896460194,-0.004593123147845282,0.012862864736374602,-0.05008934367831072,0.006044318343880788,0.005039034645350396
41,0.0888017296138585,0.21566070319039002,-0.19954604821721403,0.03344711468022282,0.2002307128447305,0.05657013772307922,-0.037948806055804744,0.17235158633161254,0.04968855625058835,0.18024198066704514,-0.01767286832740122,0.20330548883892793,-0.024789030399266127,-0.051258541155657894,-0.12180693647686734,-0.11951164167299134,0.20800200663190407,0.07008965479143216,-0.0002529116436100348,0.1571923747482779,-0.12947934802065572,-0.21330133553707017,0.13366987286926496,0.2169440003344717,0.31879901625124196,0.05165052067433783,-0.04271524400062354,-0.20445228350065817,0.30968556451336343,0.12437194449563257,-0.058280334932615974,-0.03701325028140225,-0.14814272513000978,0.2821939721165801,0.015597636866067856,0.05509953381180001,0.10455813875801706,-0.0865356031499627,-0.10608937543624292,-0.2238455670267599,-0.025141137144684866,0.009975276669264215,0.048191452065587156,0.019551479989601578,0.015193064581085287,-0.0001379840056371616,-0.01085502729970389,0.011242188385605631,0.009586049382449311,-0.005285977493909605,-0.004706352185816512,-0.013096527484113232,-0.021302080678326764,-0.03721460422585414,0.03704306208169404,0.2423259738274051,-0.06664224103745817,-0.005229951794623558,0.03651313820381019,0.0026091416472827297,-0.002698379442808263,0.021879688953605737,-0.004986315120390029,-5.9314439642910166e-05
42,0.09247071512797025,0.22373272447160175,-0.15320371453609402,0.012021169400056254,0.14828507783651207,-0.15499852195203095,0.11399068812252522,0.06515697441265478,0.18167176636256713,0.17623760965773155,0.1180583334165474,0.14727238771384865,-0.09441277754810566,-0.2204000469506307,0.030987098550069602,0.16941610776585717,0.1600731164916877,-0.054468297380511774,0.0036787787052442386,0.06928433355515087,-0.0504885988327239,0.15018668320145767,0.16162430942258285,0.1462062455581655,0.21777893572475593,0.1214403066180818,0.38364634927945196,0.2363204762899926,-0.1183072486175255,-0.05256014759298282,0.03287417306438298,0.015320836846309166,0.0769784027047628,-0.23133536949052141,-0.01708310590529466,0.014856494442461343,-0.13022066439796778,0.14742010323590496,0.2985755882735573,0.25919039666442034,-0.12013491033300759,0.004590329006675442,-0.023582192965152377,0.031292349728166385,0.0007432690233553502,-0.016054748528351162,-0.019131575487733407,-0.012458216398887861,-0.005329233112040421,0.0091684752408518,-0.010144777501517585,-0.017113510654927472,-0.007752172212220798,0.03786786988568139,-0.006086495688333818,-0.058712878054865594,0.024626083495044276,0.007889840261701128,-0.005795617098644217,-0.01843638569454522,-0.002002642833914839,-0.0004483958110396147,0.0014690551035734228,0.010804745850843928
43,0.09954896444967715,0.20690290116412097,-0.07716959305268696,-0.005208192019424083,0.020009453654632768,-0.2768105922973696,0.1588484068592043,-0.10902892047289055,0.07536524697094941,-0.06634087965999898,0.09229785483971424,0.008051285932076001,-0.2489175073533515,0.05252659421167604,0.32303961289566907,0.3148073490528182,-0.21175615857562888,-0.07034859350477696,-0.02234503646846403,0.02003988239009047,-0.13149808067551616,-0.3260170477659884,0.33077953818011063,-0.10737682349854101,-0.09925361060448164,-0.06823823763848513,-0.09767319576246819,-0.053602797176358116,-0.27238002284418894,-0.0629459177486877,-0.0018406952219388317,0.05330023968056808,-0.08432951848267697,0.06881102387206561,0.0425957532215248,0.05814266688459854,0.03061137264549322,-0.02280591791745469,-0.06558511750736971,-0.20563026795306044,0.2256050627363227,0.027740584886448816,0.04207115546225934,0.05819424262693587,-0.015302210015583309,0.03399230150516755,0.004477243480209253,-0.004729490577553445,-0.008756900054868288,-0.014286886386915373,-0.005264237861567211,0.057417975781391545,0.015462771605745634,-0.07758182565971578,-0.00584476227726656,0.02725808024198249,-0.033125993049127285,-0.037691141967288774,0.004884562813797455,0.017592780021550777,0.003851338163641027,-0.015438367527273303,-0.007819914308039563,-0.005826201692868613
44,0.12770743923709213,0.1455825304382605,0.0903381597800997,-0.037054102264682684,-0.07805920259312407,-0.19893974157370917,0.009469521588236326,-0.08369430417918833,-0.1415737427203975,-0.13392617131987428,-0.05767271326230628,0.09238605318162149,-0.16272942106211014,0.08062174651427298,-0.0070135583758440204,0.06407861303972179,0.020334965148385068,-0.03210524321514632,0.26810182242861164,-0.00885595600542402,-0.19143915507960146,-0.09229534261267602,-0.02245913709531061,-0.04301639539372732,0.04794259248759407,-0.01691131481056571,-0.005725558336158898,-0.12209910156598591,-0.05208217039956981,-0.028153132004128223,-0.02882042619387823,-0.20307958190250672,0.1914996057555561,0.148982149595888,-0.05203289757186903,-0.10608729817480411,0.08058587941342385,-0.11603677419102185,-0.2337410060893745,0.26322292176064616,-0.40742950384516985,-0.07119823094829028,-0.13325505481905908,-0.1876025924183513,0.0615034110870219,-0.12491802000463989,-0.0014502100907168303,0.04822444539038458,0.03729588978875964,0.015090425034031137,-0.024130249513135055,-0.198946096768098,-0.02032232720583338,0.27077142975155366,0.04257221851422692,-0.023414146655944504,0.11891161723075569,0.1635374985483723,-0.0026778724096730294,0.0026510244689219586,-0.015563130847599159,0.08770073016856061,0.006123814422391835,0.003173878248175291
45,0.13179107043728677,0.09276002713434903,0.1874868498510006,-0.05430303413227485,-0.032274924542668434,-0.0780968231262069,-0.09539036063436204,-0.04276675282710354,-0.13397320537414106,-0.021382346333730838,-0.0464911964139733,0.11615760752169522,-0.0554120437757904,-0.06944629701058697,-0.1330425347713524,0.05101245904606458,0.1565082902435218,-0.022477388289363794,0.23657498050556097,-0.03900276768631995,-0.07459382666449661,0.01081748293256411,-0.08211181174890173,-0.0404318075249371,0.013706905644968338,0.017843239958239512,-0.04392761155625753,0.20961494989203172,-0.04017243349887191,0.009415359916822852,-4.390732650827456e-05,0.018622420512025423,-0.001056708350686747,0.01513132019815594,-0.020372071253276974,-0.050816986953463344,0.10302405010697277,-0.049276359628917445,-0.1975327364653207,0.16912833923349158,-0.022663431446167608,0.13260680095120128,0.01891992454752147,0.16645680569854776,0.27668677368364136,0.2777072800441844,0.03706465869232917,-0.1563335462243477,0.1440788001896535,0.14960281936597142,0.034865038331336806,0.24252150527008037,0.06529669084080375,-0.33460153044686075,0.012242760934676675,0.007392839511557595,-0.23897353404181884,-0.2771008664044387,-0.06639815413292163,-0.04917111837710361,0.02009369497689996,-0.19981936462119698,0.004161242533670614,0.02038626295948233
46,0.1294157788718291,0.0668028870860382,0.22998249814842261,-0.05765890869796552,0.04580114491333528,0.017161139348740043,-0.12121806099103949,-0.03825010871608344,-0.01006476759031344,0.09936414716720594,-0.01038256732750093,0.048599154652012054,0.0704007781316441,-0.05299814852429508,-0.030018811724224555,0.17324028845726025,0.025725262511977418,0.017135312880002557,-0.003624748474261731,-0.07320429033264665,0.1916317062809798,-0.0925200531092735,-0.0019405904820846767,-0.011226862919772547,0.0473251571559488,0.054802889223372446,-0.14395187951150235,0.08921073730652856,0.01682812971683562,0.03097946466887573,-0.02563299517728812,0.17606935259578999,-0.16335322189036686,-0.03882363425080056,-0.013089480987040061,-0.011764616627834651,0.08240555715359899,-0.04260460172169134,-0.11837135816234794,0.2089404873146709,-0.048480589355783026,0.2357335706397267,0.14581517614169331,0.26933123943606474,-0.11223780978723373,-0.2826025531923043,-0.13521801933207256,0.15387157937559195,-0.14084922020427515,-0.1491635157405197,-0.029508695492436433,0.08791755218615799,0.030730574170700298,-0.06696703617981933,-0.016050456918550615,-0.03133601426087139,0.10569019647920616,-0.0006138540815809612,0.01005673163894217,0.08373749583389319,-0.06085832168561023,0.48979442825895636,-0.1706947971587242,-0.07097693074143765
47,0.12334469860431901,0.04885759024135006,0.2389277487908646,-0.04838842549556549,0.11191456633647806,0.08385284027906141,-0.08875460639776298,-0.05873598598187677,0.1777288306234693,0.1948227521616633,0.06080322768041815,-0.03948319297003406,0.0792257563102138,0.08145940965736836,0.12451717853835592,0.06866508594977487,-0.11133558030422257,0.09084482860655153,-0.07779747959398789,0.07754853394334423,0.019555772727812972,-0.18908679851956245,-0.22520488148377765,-0.07055133359969268,-0.03259697033002789,0.06372248490533279,0.23638444770019493,-0.12856153362815761,0.05237964128490319,-0.07328023191124665,-0.016595563028226734,-0.20758506472126959,0.2218444610884756,0.10996775442987473,-0.09953875327480828,0.007359423285389716,-0.02703497633966853,-0.010420386337027465,-0.06456985711877875,0.13029533210799896,0.022397329829059596,0.12897180263982738,0.16810327431745556,0.18298772919346745,-0.42319305226751763,0.30725689237492715,-0.006038806949269199,0.07044733348476301,-0.068056077311971,0.0650226290692295,0.019659075921499902,-0.09083390723402325,-0.04747363317105471,0.1148868209144537,0.009108458658761184,0.04471633073825206,-0.09155936643277768,-0.06298404346780029,-0.01593715357388767,-0.01927713512776172,0.026125994435752486,-0.16409810001152417,0.05865941162325017,0.030155727864022007
48,0.10725523690098705,0.15353685944834308,-0.1782298458702929,0.061071022287839324,-0.0018982060161549896,0.3176268008743321,-0.16641078774567092,-0.05116184907830663,-0.13266866842879418,-0.03839817115730427,-0.026444107774818384,0.14239702233576462,-0.18679268283690395,0.11655965027318377,0.0746321617128424,-0.04946718560175065,-0.07034654548704054,0.08348885331666563,-0.13165541788116275,0.019776595558027455,0.08642138606597297,-0.045861348186376986,-0.04189792586099843,-0.0002258959986556619,-0.026449879018557942,-0.028652041756074893,-0.26825361269260983,0.1297742634512029,-0.11996293929495289,-0.04036042025830767,0.02937287908787943,-0.1173217616398849,0.20647300072646038,-0.09238825911970255,0.015667684727449345,-0.019063093354532684,-0.049250465143588384,0.030184293242687274,0.15480988139530855,0.3402640231354228,0.20696372448054032,-0.06201893344033488,-0.053083582380039275,-0.038061755226870275,0.043768132461460635,-0.07914976596975049,0.004828193842498513,-0.02366897354093162,0.024836083045893742,-0.0642060496959057,0.0089515501397818,-0.08099013293457852,-0.08856722632440578,-0.04659775479640249,0.05547921229888707,0.49280140468286104,-0.10016925670837182,-0.008870062303919592,0.08237612055456554,-0.0020154644950521328,-0.004534347759979462,0.030299147397243095,-0.0008526288678655236,-0.002174474547385785
49,0.10463459617736838,0.1886783801391721,-0.17140224675401425,0.04567721542428734,-0.019432696431256617,0.1608017348532548,-0.042436060050749416,-0.013253172899909958,0.057007663520954974,0.15748477777896697,0.1039348138841773,0.2899882343749902,-0.22339414462473145,-0.08449334572040329,-0.20166293734326296,-0.26350788561134625,0.12986442622721342,0.11491853610118642,-0.03297054121150554,-0.09223116048526281,0.02246090177990355,-0.06184874069634133,-0.14167669855453788,-0.2761759466418732,-0.34714759979377696,-0.07713374580285068,-0.0335927375125232,-0.21661218227921752,-0.26455694758161574,-0.11379854045939554,-0.003690133499787862,0.1458180743976315,-0.03384100597192588,0.005298603587442718,-0.01465200712858035,0.006161525420103342,-0.15255841036285375,0.1047522831723554,0.053955326632199145,-0.16428618575420695,-0.24417710906617118,0.10141988408467861,0.053976567199159727,0.06646914959736823,-0.015569647732902696,-0.022664556076316886,-0.013020885936792514,0.016137644527398784,0.005230016939612364,0.04987197459888671,-0.006057642935819896,0.02941728442801167,0.03243859732067646,0.009178735621366119,-0.010082743983076403,-0.18371529831516692,0.036978034025883136,0.0010161086056237195,-0.02694483230518691,0.0050111141437321136,-0.0009883031209749205,-0.008452691205747688,-0.0010378732527826645,-0.0036772586849667804
50,0.1070183420864843,0.1976488269570792,-0.1097687603643059,0.008121535936913745,-0.10711882650602249,-0.0867639661151183,0.15293410028139448,-0.0678537519541561,0.25032659420404985,0.1983511229047397,0.11494480759711678,0.20464180069556662,-0.028900462013085465,-0.02872589692189861,-0.1170785164067169,-0.02609962207662512,-0.22467851245115328,-0.13249377367852486,-0.016882527376953768,-0.23948802644987507,0.22924418610897868,0.4102700175986544,-0.09835926706185846,-0.06629545806931723,-0.09229062158626945,-0.029795874573711217,0.11580397847367578,0.07447922246398427,0.08900009054833224,0.04843566925388029,0.017804133284869357,-0.07031673984424765,-0.02451375490148236,0.09744119893629136,0.06505143490789703,-0.00532846466516726,0.2875698864335221,-0.21957595974333918,-0.2703603544445255,-0.0005624894086100132,0.21019173322171814,-0.1412788390897309,-0.04552777574788425,-0.11962319614683366,-0.058072193425982646,-0.01687553890887962,0.014782070829948979,0.04158402453784449,-0.0030534555977517475,-0.049984382619147075,-0.0037956287889146234,-0.013201778925799261,-0.002626807366180907,-0.018864653810965512,0.004515958686353717,0.07099614021676867,0.002647047872966629,0.0027853799264941498,0.005939861699502752,0.0013775201330047358,-0.0017189745989648793,0.0033623011920040913,0.0005374197443554357,-0.006334039397183772
51,0.11264625823703132,0.18483245751311625,-0.049018748011206,0.008744050224939699,-0.2215521812948365,-0.1547070636897358,0.1557944776730089,0.013768953918173097,0.13859856088274167,0.04372829893128586,-0.13641200093165196,0.10000463935575511,0.03613012669200101,0.21348499550928726,0.12439969869696524,0.13934751245283583,-0.23766826414386027,-0.011220645483561253,0.01117622961746342,0.1222516075238773,0.06368422545316098,0.19318672131063347,-0.2291489909396897,0.11495239166817228,0.056944961139811734,-0.0370588662900217,-0.26604531454672214,-0.23034092929908817,0.2949777955341802,0.07594372645359387,-0.032911754245928085,0.10810859310277894,-0.11118442859349201,-0.1216816088435343,-0.11131501053024367,-0.08758086243628634,-0.3032753822558882,0.21929448636525217,0.05280103424011032,0.03182536942638903,-0.06510285013337513,0.1647640526423684,0.02016468467469051,0.11789940905218842,0.17701668970320047,0.06476042175386983,0.01649161866293894,-0.10822869598334002,0.03954422792198553,0.10417726974035131,0.03898709681376314,-0.047471118328418466,-0.009178636866655376,0.08188915045254125,0.025334576896103467,-0.016860823927230654,-0.022029923878224417,0.004792269853032188,0.002454266889651363,-0.00306502980645168,0.006773684947652764,-0.009321600518434836,-0.003985790056984611,-0.0037954251775602806
52,0.13002135516924737,0.13017613287901508,0.07719938440595028,-0.0029472933444940775,-0.20887660580011372,-0.12018535564220166,0.013382083228491621,0.11434132775321962,-0.09917667808965559,-0.07514543232813584,-0.19813889645083405,0.09118288436693515,-0.05656564542610466,0.06667275758057344,0.05297740610994221,0.10098418877975171,0.1000102298306506,0.04617261934439077,0.1486340998757283,0.12356431137304844,-0.12013047258297814,0.06530235780132303,-0.1365993873161805,-0.10541975190860352,-0.12334373938949132,-0.027581231193714098,0.012659101146360902,-0.0357403660827493,0.22884071851585946,0.04566570021516432,-0.013811031739066282,-0.0669723662200045,0.12088967172082038,-0.10085305194199895,0.06919795037178249,0.14696951758320884,0.07618659281232092,-0.08741544969336765,0.3479790859796359,-0.1260025210892827,-0.08085256742714098,-0.16873747150392673,0.0442198792965469,-0.12128311687969891,-0.2948210103525949,-0.11478226730635022,-0.03237191015335694,0.17914430321789038,-0.12876965112262073,-0.22483286365970123,-0.05588981107764973,0.21584859670523038,-0.01362839320381487,-0.322078494716825,-0.11348837516185831,0.0017703176159408855,0.0034448257495646034,-0.07191033428572928,0.011364011446115013,0.005734872673811342,0.004990990464820522,-0.0692303531230311,0.014651657104561289,0.01104085245111961
53,0.13294489686061037,0.08622321849433581,0.16731354798048173,-0.010950750834826314,-0.11366757851245765,-0.03965282171708258,-0.08755852855347879,0.1408277823370948,-0.1214896981511149,-0.03363340883329507,-0.07545796014048088,0.06805504110991745,-0.08307999997607045,-0.13973480633232943,-0.06549325564993169,0.07555336069341091,0.19715331061022204,-0.005840975633844941,0.20484722838527109,-0.05637501047033912,-0.06669500075280424,-0.025681309841628506,-0.07938963450584596,-0.14947061421098434,-0.14476307750659162,0.004452780992918265,0.025278158158968486,0.3008991777289568,0.14188579729879786,0.07558123087164349,0.03577620856745631,0.03640381667935748,-0.09782613097879697,0.053009725056921725,0.03371508067004973,0.09266282246667652,-0.08383214680468293,0.07477902568194048,0.1280827461070931,-0.20870311481723408,0.36506840746182445,-0.02039904370628466,0.016400401452154864,-0.005475410922346852,-0.04267444926923633,0.17667402996145534,0.05332233257510502,-0.14144220769345012,-0.01757544926112521,0.09560287123831196,0.02844572067970444,-0.26821892979688094,-0.035454990940963015,0.39874763520011564,0.057843382166047064,0.028349263708197563,-0.012640609244980533,0.0733540130698076,0.027696436502852334,0.0002565572310652825,-0.01707762603855631,0.20823201223388368,-0.045828469132386765,-0.022761926668687357
54,0.13159649190290126,0.06263379249255924,0.22045788329423935,-0.020282915065325143,-0.01627001789908009,0.037436886669427766,-0.10929799521137579,0.12836125682966176,-0.01073045916010083,0.06313811441320726,0.03425015134172722,-0.02888484415190294,-0.029744870554679982,-0.12037882389935188,-0.0068803519086257465,0.138404745514021,0.011907972953754132,-0.02424738847402463,0.03152610363058807,-0.18985533510677904,0.1841056836298135,-0.13653300142752978,-0.05911036309483348,0.0028365015271249044,0.11147156397547045,0.06382828506147963,-0.09445147396343287,0.07669180040097276,0.0038274509530464088,0.015166111062879226,0.00841799286738898,0.12946225783145682,-0.13565276075255006,0.031626469820654826,-0.022323215288231057,0.0030607737243888156,-0.07807460439923454,0.08587924452843948,-0.025546025795351132,-0.023175667360187946,0.06269046097826048,-0.00782728552139109,-0.06910244291513301,-0.04172127510965926,-0.01746048991974608,-0.3024705465776591,-0.05366907768453451,0.15430835022545208,0.08920830717089713,0.10717962496647145,0.02801507427405829,-0.005083172421103371,0.0345992863812514,-0.03715796412514143,0.03630036242814659,0.0624068474728576,0.2302910105669739,0.29866772291868965,0.020278540040614274,0.0018051609082720688,0.05574913482446617,-0.5707597628048663,0.22037134774430883,0.07131773468225103
55,0.125647565027291,0.04539514366437033,0.23177533636232917,0.0014565472113097706,0.06092768507397254,0.10275666562557978,-0.05989512287268163,0.11159831593859969,0.16083913727107044,0.09246253030376902,0.12011437542367427,-0.12392380498840253,-0.0900902558762032,0.044251704658863224,0.06204273571987536,0.06276990299775169,-0.09894813622525958,0.005654753228590743,0.05994741880966822,-0.10957908948785916,0.11856380966847496,-0.2067617511406436,-0.38789818448165414,0.10967206337975334,0.21928664133695183,0.12290533827756214,0.08394228379374774,-0.15577965568739008,-0.1608700750464782,-0.10889319791697961,-0.036462626140221895,0.02919497832703081,0.10068245609595805,-0.14888749655464473,0.05093477180662452,0.12802905964671102,0.09135984405013464,-0.1169919916996841,0.1268450688482462,-0.22654539243398844,-0.015063866722637466,-0.17007574585085822,-0.10645408694899379,-0.1547424984087153,0.3429973477034257,-0.029816799437655403,0.08638359854438148,-0.2066066125034509,-0.02352818175033218,-0.10676754112202033,-8.481115393171867e-05,0.015856261648643233,-0.01079639310202703,-0.011841038340225596,-0.08282205672853318,-0.0361816418910009,-0.06012145239678631,-0.0632044109952103,0.008055031103482824,-0.010149995293469799,-0.024214368010993192,0.16837872289412106,-0.07313810528568687,-0.01885446594840484
56,0.10583468915424815,0.10133234680741186,-0.12879550771826612,0.06867236190778925,-0.15380009822126917,0.3709664646804685,-0.1561430541511401,-0.23989359802461901,-0.13725482130564948,-0.17244176276240028,0.07881830783985916,-0.1338172351158627,-0.19552379640324088,-0.07658124269902865,0.2818205692651016,0.26118197780536784,0.09463554369612245,0.027403564795453025,-0.11013949409208329,0.1707598927652402,0.08439343209918619,0.30386157687197723,-0.1258365352048318,0.1472955811071158,0.10468729557451073,-0.013856854084382808,0.0906565359928466,0.1068343084917284,-0.0312512155697681,-0.009470358289825339,0.05992986666328699,0.005694956292396747,-0.12699487201022597,0.3288380398834087,0.006699117291152856,0.08091286850803261,0.06028746105147309,-0.029101865613949902,-0.02954724099186486,-0.15867289092441458,-0.17324139223320745,0.04310995741924641,0.044270786184360755,0.023379445602506092,-0.007320256154399199,0.04722789021128035,0.012349321125116386,0.01424344428266286,-0.01576139392321912,0.03327408771303117,0.0037341302360177214,0.01931160573526447,0.03182710453088289,0.025900365829269273,-0.015622040325743117,-0.14948057265457904,0.025335777483736055,0.010230722590599747,-0.027955387861926244,0.009505549391772783,-0.00017105357263715384,-0.00658769828573437,0.0019592705277045597,0.007779477803741108
57,0.10687532142244618,0.12503954860596195,-0.1134505879648893,0.05616840685765208,-0.26851625894368736,0.26504538059756005,-0.017173321610565343,-0.32001585995396153,0.036573416208705106,-0.02532335641405419,0.18581891467522513,-0.2783895211549544,0.08194973475902384,-0.222287844084885,-0.07773753200042731,0.08218836843341715,0.15318070438511308,-0.045067564521778,0.18700727832526684,-0.03543056635373001,-0.11854822326728423,-0.11798641618323734,0.13795276046297036,-0.09781239137259169,-0.016938965009683976,0.013207687038286738,0.13727644660507146,-0.32598626248518625,0.2162465582617274,0.07480711433449809,-0.11274838317742729,0.057149910471809506,-0.020669212248716984,-0.3876434958184866,-0.016909348332613358,-0.10145531799367147,-0.004367232904116253,0.0038859531000347974,-0.12571023850858132,0.08295401562445043,0.15795656696578264,-0.037085574006571115,-0.03797396418996865,-0.03206327709222835,-0.005607449908365092,-0.002915466823075308,-0.004902357305296725,-0.008705197975947349,0.002808871339378252,-0.016595148206918833,0.013059096826172567,-0.002661474749487469,-0.019565772720551933,-0.018002133134904535,0.001540064831791657,0.049863839257554526,-0.00050414278963129,-8.205706252800704e-05,0.0048445529958802,-0.006382355490886865,0.002564148757081825,-0.0033900453833458494,-0.001923100766990404,-0.007190335716191716
58,0.10838130130074448,0.14520759260233979,-0.07288083313133081,0.029588024898738238,-0.34307553751761316,0.03558918725491162,0.15593783940108688,-0.18846366694904215,0.19212393786705867,0.07792130521347532,0.07165602559598944,-0.21450505952336765,0.3020123482841778,-0.016352135799869008,-0.2033986836772151,-0.13384382129911437,-0.07824859149595988,-0.08539499197704425,0.07143770195592052,-0.13732574685633758,0.003750071605889277,-0.20691269607142998,0.10858248869886715,0.050488088321293784,0.09695202514978014,0.01971325704583296,-0.23943617928985686,0.3042616347947881,-0.045676366058911115,-0.008875216881024842,0.0359332886988621,-0.17980454061437431,0.18925802189260127,0.26910261296822946,0.013092122932010536,0.10428310506750604,-0.03383526869472517,0.006401244384127279,0.27317140658117317,-0.08691005695059781,-0.160182949108437,0.05357503603100949,0.07204320381267056,0.06966950552902389,0.029672164941053257,-0.013597470949781441,-0.028457241569782923,0.0014385998784533574,-0.004461794828222031,0.03257593141326162,-0.012775944067672046,0.01939432397123339,0.021292124032993687,0.007615927396905989,-0.00687353414371434,-0.036492626064192527,-0.010664174462285153,-0.016842568567518625,-0.0005097318351889313,0.0012433263556337615,-0.005619619069404724,0.013281279387926708,-0.0016238291730815424,0.006959565032739756
59,0.11827472277237996,0.13799844756256055,-0.030527519081885918,0.027496597515145996,-0.33910762112207854,-0.030544854228637966,0.10429725143854086,0.10074235974420437,0.05421767463707869,0.024287890527077523,-0.1926436335551698,-0.05589501863021905,0.20539201363758477,0.13638653086891714,0.00914138768436037,-0.18924001563248996,0.11046347611720882,0.17133313292645796,-0.11648122534537661,0.24268902672123852,-0.11678170421840937,-0.14338227890752522,-0.1504880649018559,0.1609586841355582,0.04130521156442699,0.03849586132825656,0.13970067609977066,0.17553338821688852,-0.32233903829037874,-0.10801695548869154,0.07006082001751465,0.257247998428925,-0.22058740494581233,-0.02895432182929976,-0.04572564475940591,-0.1306151087417898,0.0040409029461623,0.030676768977422414,-0.2786538795189609,0.0784735579770518,0.08664320666547973,-0.10343363894846061,-0.07651636487307231,-0.13965974176887158,-0.13411046699853102,0.07359440525428582,0.05710310347962577,0.01171123792005066,-0.04136196692063449,-0.14333135437927846,-0.00473110202139701,-0.008885879783991774,-0.008971570557860686,-0.03164953567751273,-0.00923488266272917,0.028159230030015192,0.033606153775526504,0.039074754320558444,0.0060797897736126,-0.004314721162776952,0.003276135498431018,0.002056024700876055,0.009307861512752754,-0.005104998858302755
60,0.13174412957091833,0.09638626966355159,0.06011939737142298,0.020584006357690806,-0.257625814559142,-0.03521194689822476,0.013188233387715612,0.22844213239181632,-0.08544523517572501,-0.06521900700622743,-0.18813535972855588,-0.03530383132220075,0.09547438104042008,0.04931990023045167,0.08732425904851299,-0.08422918103137594,0.07936048820421408,0.09731659161949283,-0.29904039793988535,0.03833315650335386,0.10713381218954918,0.05296691202754977,0.1745233617397217,-0.04974173400638178,-0.029956658936583013,0.05304198623324369,0.1978765229125225,-0.17744249357262804,-0.07987326581425015,-0.006425619720951466,-0.06542720593393826,-0.10528418811279201,0.11101540893821599,-0.1221228530944482,0.09524110035634448,0.12189898146514302,0.23051215280888326,-0.20057119166548834,0.07762209012410232,-0.022340909760370786,0.05833850899632893,0.1053045502088765,0.021439549435151514,0.1941624383882958,0.15700417323629645,-0.202941561788827,-0.12305708825571854,0.07065713320799567,0.19083556676935914,0.40249843002404584,0.0402082567532593,-0.029118881687059707,0.020897552392224406,0.12464191810857937,0.081045649948328,-0.022339677226794197,-0.041736242691628955,-0.08166625840821437,-0.043714467213923,0.015903673469255523,8.221538977917775e-05,0.009580607658041352,-0.024179597839844177,0.0021354045984855186
61,0.13471260463263673,0.06715698673231454,0.13351343012063574,0.01941032760903268,-0.16575094964558182,-0.002568615339962163,-0.048036436688714934,0.27135679579621486,-0.10187418463321374,-0.04517480595440446,-0.05199999916887335,-0.03416059378296276,0.006928863211421546,-0.11908120051440002,0.03743101956200487,-0.02687424914808826,0.0277348655658671,-0.0036399048244022446,-0.2375157992824115,-0.16011113465566235,0.17281460568227586,0.06955584654623558,0.3181405936528228,-0.09459470130990771,-0.018691469469188635,0.0010750409992592302,0.08397029757021493,-0.12699130118503507,0.03678621031562961,0.02206603648034676,-0.014834070847274256,-0.1601044006954257,0.09472733470724068,0.10741976530335991,-0.012819976624725449,-0.09765862036209827,-0.07804845289207805,0.13058508754187897,-0.08513294013421119,0.024490509662001392,-0.08361176448142257,0.06715718600458577,0.06406132268315416,0.054788664702505166,0.17388284326993253,0.20831799255364503,0.11007838648595304,-0.2636100249490366,-0.2443409424883019,-0.4437777353188922,-0.028744196012370583,-0.024264069690179135,-0.016631896352972714,-0.0856916547873908,-0.09024612422893494,-0.002120333114402226,0.06015148948477833,0.15238339772029733,0.0589294765788647,-0.016598317659229617,-0.0007441759268182954,-0.047450305405045766,0.049225373769298586,0.004458899545474196
62,0.1312694071809929,0.04553217293461044,0.19045300629641865,0.03900042410874563,-0.06798123704505596,0.06162874899548281,-0.059242500038467545,0.3016941933189827,-0.020307117237522918,-0.010949659806989427,0.15586436010520163,-0.11616566784889748,-0.09184567776470422,-0.1407839181231893,0.022039847564634764,-0.039343388495642395,-0.1131593173876476,-0.10910918537046736,-0.11038831433533187,-0.12578544198518343,0.019207763042075332,0.035037872373854625,0.16420183726343432,0.054533669378699835,0.04208388886960788,-0.06295625675308172,-0.07713808734233651,-0.06298827534076269,0.03426907665541538,-0.0005527022794839,0.052663415556740326,-0.016322915309503878,-0.04724882046239376,0.11868112985441992,-0.11616840052456581,-0.1432613906261331,-0.24904956384429996,0.17352383593519916,-0.050283452918134575,0.041597754403378304,-0.06358887046365194,-0.2048802233041995,-0.136859548525727,-0.293077447287434,-0.22537374322626466,0.040144382648546334,0.014891450105158618,0.20300400641875482,0.17012059777627314,0.22400944776252124,-0.01631399842348638,0.11536478558857555,0.010890858442321683,-0.06935351376313342,0.03797250914668452,-0.034657520928103265,-0.16668722336402056,-0.2946900679722658,-0.057923559993609736,-0.018179891984366058,0.004820966099108516,0.20823816803497536,-0.11360276865483154,-0.033772055144707824
63,0.12252055914405512,0.017232826026882454,0.1903254783564024,0.08572309786404884,0.00016378805480046123,0.10403999334926758,0.007934551806464848,0.2917172130968907,0.07484805409683343,-0.026520022206542423,0.33391100045703304,-0.1917361008705786,-0.19699724003979333,-0.009687529372008907,-0.03921602935131122,-0.24852885914669298,-0.19376235450179874,-0.17815897820246343,0.05092000901622111,0.19815887108524832,-0.41389456748901765,0.18263127118385192,-0.006606378515455563,0.16663945363449623,-0.09388921860783903,-0.18376077826251444,-0.1131956457617608,0.06064769036077271,-0.008626818719691315,0.01116149000168474,0.04183163311245884,0.06147067229362807,-0.036037361972558635,-0.11123055083592157,0.08576830871213748,-0.00028887886413385064,0.12446566242625251,-0.1641298355476376,0.02725835753796323,0.06005035916838617,-0.016100909141201887,0.14750600826389018,0.08729324911135197,0.20245533608055705,0.001726404370909579,-0.024182754513923856,-0.07378829269975264,-0.016204844238508615,-0.05819519199195992,-0.069981074666663,-0.00116987328725459,-0.047049780394678116,-0.020972313961933553,0.035187368691867726,0.00474201875465427,0.016235506291137847,0.054594745774882464,0.10743516488505125,0.021189316546791376,0.024046204373258925,-0.008113585772916598,-0.06863171473153205,0.04880126044729183,0.006509400844895874
