,0,1,2,3,4,5,6,7,8,9,10,11,12,13,14,15,16,17,18,19,20,21,22,23,24,25,26,27,28,29,30,31,32,33,34,35,36,37,38,39,40,41,42,43,44,45,46,47,48,49,50,51,52,53,54,55,56,57,58,59,60,61,62,63
0,0.12805207527111512,-0.08710605808772146,0.03064317154595639,-0.08266522717060262,0.04338964060455827,0.053581299090673225,0.08196982406614967,-0.3108053063629141,0.10794649927073638,-0.3445372070197813,-0.1830506239891362,-0.19060328714511215,0.2844872166701353,0.019276962817136884,-0.13560026126643182,-0.04699755422823687,-0.04293224555552261,0.014050628386586814,0.16280484097857964,0.3580624699305607,0.14135099215715896,0.3493239025703214,0.12399155911008293,-0.2332255964135688,0.21295007014480033,0.11490515451326587,-0.028082650392614348,0.045107769129694865,0.07960422937642765,0.016364364774142697,-0.005223756312469029,-0.14097686561069123,-0.019635311537054972,-0.060916609323362125,-0.015842636970265868,-0.009827742351794962,0.23625183275686396,-0.005456626820156514,0.158969404483728,0.017370934011481206,0.0020191259283714328,0.03958662248339357,0.012117262506665238,0.01546070456343823,0.001731092915653007,0.01994713177648535,0.00842431465438799,0.06850802028028885,0.02248216890126829,0.03011123302308228,-0.01718095896817862,0.054502081164041316,-0.009970218555079938,-0.0384457625923985,0.02698477635649891,-0.012849349975613341,-0.00031207517707024067,-0.01109536739162982,-0.031743298555679075,-0.01397891349147433,0.007554133559200762,-0.0006165268939362703,-0.010757641796140699,-0.005576952101475667
1,0.1347048540622242,-0.10953533520100636,0.04781195999724623,-0.06338790928210244,0.046864492463686555,0.029715562806055994,0.03615555626979134,-0.29441807993231445,0.08659816564453403,-0.22762773985461918,-0.1443381513943988,-0.1170091180547711,0.1648149931656806,-0.006980163869742213,-0.07547109440721875,-0.009797109434356579,-0.017411369458366514,-0.041709043897202466,-0.04906334002180751,-0.06281625095619017,-0.03979278222459721,-0.08444874229189397,0.026862986819872325,-0.04148383780213552,-0.04703836975609874,-0.061932272233532835,-0.008400514255334088,0.018762502561622475,-0.06094574548364943,-0.017583428486717564,-0.024970360346759767,0.32260323774457617,0.0930927533527852,0.13744455727819058,-0.008036672962350838,-0.05858795371759144,-0.3388624788724081,0.05816224399042774,-0.34103811483378776,0.040523329368291214,0.11165552292397826,-0.06804462891628521,-0.12620188653794093,-0.04978063905060637,-0.0832450444756229,-0.1001016172409993,0.10720549083665153,-0.2968996832422742,0.01253793705854294,-0.1437552903790339,0.07955968410904803,-0.17286618855229943,0.006861426991826236,0.27472085525784207,-0.17139612157718428,0.040482219562798745,0.02112656240706583,0.033358273312445966,0.15164253053171214,0.027264286033818506,-0.03119592526887502,-0.020684583303302723,0.027395833891257673,0.023864127021637285
2,0.13994840629514807,-0.11714919963450621,0.042546263405943016,-0.023997398578103346,0.0257803369905356,0.025270535936750202,0.007504967101809139,-0.2343205179397372,0.06744498259878698,-0.07221565019416512,-0.043558677967189666,-0.02471329035410682,-0.015342397972443312,-0.04364699975902216,0.005856863040479242,-0.0006838114750289358,-0.025727068189841665,-0.005218403222257695,-0.09832721530268075,-0.07024316871379434,-0.11892753455977276,-0.19068020299051708,0.043933579071472606,-0.15931301191196084,-0.13435800934247183,-0.14465584715364968,0.016555625318708092,-0.02631579832587281,-0.036187559901464814,-0.013077131326270863,-0.013645733917674574,0.2150104395733553,0.11471876960937998,0.11386435870303581,0.06158302066978359,-0.024988544899617465,-0.037586674918438326,0.06166318276508345,-0.05301449686721885,-0.002469025298742704,0.017617059250231784,-0.04604063638631722,-0.008512658363212432,-0.055863918996673256,0.07223519577416698,0.05267584958735872,-0.18094094921604606,-0.0010837288601371516,-0.18576598673223907,0.15213597958133063,0.07192027012491414,0.061100270368199976,0.013026670194606498,-0.5963830776766249,0.318584731257283,-0.11892471102822413,-0.07681052588697723,-0.026660565395681037,-0.27480404238245837,-0.04958766155747328,0.06363775053943066,0.027727728136799593,-0.0027278737721933037,-0.01614383084334046
3,0.1410153852333293,-0.10465948200948466,-0.018244713354140324,0.06927518739634331,-0.0422774435307437,0.04761034710220388,-0.022552504624252068,-0.22639343321871896,0.05013206270166096,0.032442293265374456,0.061494040930999125,0.07240143057171212,-0.15832026420971956,-0.06292900617886617,0.06026092943032576,0.003102866308953789,-0.027360975253754395,-0.013578291877274721,-0.040718279193498894,-0.019106345084543813,-0.0037865112676486873,-0.09433995970144067,0.016513420779405222,-0.1799890689007424,-0.10338878794279735,-0.06310476569079654,0.015984745056879537,-0.04207008586093547,0.1019950712441658,0.08782739076881882,-0.024322031143041375,0.04815060057269437,0.05456825561024256,0.05669914030016341,-0.004941994403433457,0.07072431967777147,0.01612876321885376,-0.01942946641362108,0.26177839925053054,-0.06361351743025524,-0.1495823436032166,0.09196282155769545,0.20172302115182694,0.08400123436763271,0.09894976485602072,0.0351504436257971,-0.28502378172454784,-0.08798542064113218,0.04869058773881948,0.21261902095666993,0.04066506945344853,0.023152413913656217,-0.06889713097311717,0.12462931368691109,-0.21241181128725292,0.10001825762966826,0.25033571520625464,0.024776709764639186,0.27310720135828404,-0.0021201251802709393,-0.06470554106481759,0.4935600926598139,0.03946825107063573,-0.07271170911460992
4,0.1405112284901902,-0.09925935784666247,-0.035093855406294006,0.09254903902778566,-0.06181514712128673,0.056819122970731516,-0.027687659992909466,-0.22019502761209547,0.04105834611802624,0.06340463016543352,0.09753201509283937,0.09109576251043298,-0.18077260579327925,-0.07056971655948735,0.06571543362884283,0.020617856418505335,-0.03142913600551039,-0.011010880837079946,-0.008752650075134955,0.001728668710428094,0.0335478001783701,-0.017280024790863976,-0.0018359941455106596,-0.0965733028848021,-0.05225713344711036,-0.006621289864476333,0.006807230904773136,-0.02153186447992794,0.1520181290863205,0.12984161579167172,-0.00953105978005983,0.009210150260826291,0.002732879392973696,0.018708160226637634,-0.03254561083540618,0.09040355087081546,-0.06922624796517912,-0.0881150341502167,0.19206508814476117,-0.043025410663609306,0.04388289483858753,0.07409096697930083,0.16628243138423882,0.07521828460135377,0.06709831756426511,-0.004200636569913898,-0.12662665517049748,-0.10148910220103483,0.11647833737018494,0.01768020870604609,0.12923528871473258,-0.012606352019038758,-0.07702476504641052,0.17492497833442813,0.014892228223457933,0.0565054511976949,0.04265711182610566,-0.08233108262448154,-0.16444186293638902,0.1240640234604655,-0.011283569458919888,-0.7239764205292173,-0.049240047288907594,0.046262541362583544
5,0.13766050273779087,-0.08842772921879168,-0.06826764996587481,0.13321995293862005,-0.09029873050057308,0.06339687762026919,-0.03318495153764714,-0.1916847427865733,0.005943174039392332,0.11344998945724857,0.1514377724248592,0.098555404432876,-0.1468403022750574,-0.045053740860342494,0.049541657648257104,0.05257332835563062,-0.015260307346728374,0.017827149858218348,0.03404212154688188,0.0769870544653161,0.054316939756508614,0.12154552639276388,-0.033418075075135646,0.09278071252777226,0.007182985391904685,0.09133847873828194,-0.013728759489043233,0.017949833909334603,0.21487075727838392,0.21982615557300522,0.01034311329520101,0.054593563484269136,-0.03180967505777335,0.01342249514096263,-0.055600158801712096,0.11389849095581728,-0.13508926938417312,-0.24321706543834637,0.107038975772904,-0.0009173519621779452,0.22469819071671157,-0.030593845018285694,-0.11090405119712647,0.03104108518380447,-0.065179458523391,-0.049410807132048366,0.19051385081214886,-0.06390468387036607,0.12684108975920338,-0.1734561832388892,-0.07903859516478176,-0.08320255722444818,0.028994137339928953,0.051764303750531364,0.30095512157950455,-0.04212979306852181,-0.4362961711282988,0.07628715193440279,-0.05900335555228327,-0.06642291451880646,0.0741830220564108,0.31949070481301833,0.010930218448001608,-0.004051662456959046
6,0.1384046914583486,-0.06973971733365868,-0.0948455267119021,0.1513302956364148,-0.07730319596467705,0.06105300024631383,0.008522442475690145,-0.14043156806774953,-0.05260155108226541,0.18642811800472933,0.1428356934913322,-0.003921538353677978,0.03291017224129639,0.07471831525947414,-0.043987525868717486,0.07725494345724071,0.015673058967639944,0.07511044614058762,-0.049968510421236345,0.14887302339430572,-0.15456837437948112,0.09729586676777753,-0.02074091069082812,0.1345748053835995,-0.041848097404690754,0.05625723229647252,-0.020457871009740478,0.003031020709647352,0.14123073738405317,0.19668217189692727,0.009689512362062648,0.07502779906386356,-0.02174303278163489,0.033623673403705145,-0.018379664219301393,0.05485113556665074,0.025120795053726108,-0.10653739098966789,-0.005609715364224693,0.0567917647293075,-0.08549836311565098,-0.08087074125241228,-0.21331556515516611,-0.0162971690902091,-0.13498404888122925,-0.010758198307097067,0.29237711561357616,0.04634531050655617,-0.1936746515177895,0.00852241145450948,-0.17859993863810175,-0.0021006554891756513,0.10917904983641458,-0.2922046990265568,-0.30602350045298443,-0.18556742482055455,0.4341474196512578,0.03720272903572659,0.07935091019128307,0.015390499850562686,0.014385414574803093,-0.10915691704627857,-0.009101424295725902,0.02606250931705752
7,0.13933393695843407,-0.037227561770655386,-0.10885324437340937,0.1441729708803271,-0.030257348170957404,0.04847722371363766,0.05785921762288576,-0.108147449402458,-0.08163465178202083,0.20889551529050937,0.06984373139327027,-0.11220600902860317,0.16545586373720111,0.11539325060547617,-0.08274406208347217,0.06541024265527884,0.017275907286544396,0.11897180628459791,-0.14750464060847662,0.13185573535669765,-0.31026412953100163,0.014404033031498148,0.009670614392416347,0.039203070534585494,-0.07472653839463009,-0.04584418811452949,-0.03115831404851416,0.02316156017488085,0.0981648435523212,0.10387891058598941,0.027046760537405613,-0.13403867807275355,-0.09568570624682624,-0.07950006554175057,0.0014648274445557188,-0.11170132273601603,0.05651408955739615,0.20690672952455944,-0.22522632750748048,0.043394575057199486,-0.18661048751738976,-0.08228009709356937,-0.029967942764476334,-0.08070610952719981,0.12026129771419565,0.08222133158769236,-0.2883165970332353,0.06419211947759225,0.13535971492878826,-0.2849063459059744,0.14533836338449854,0.27041624694553845,0.21602350675729418,0.09846368448103233,0.009584420092661729,0.2135320918099497,-0.1527513442958988,-0.05092684926621488,-0.017557873825861568,-0.020744800662084763,-0.0390942559629367,0.02433536974238084,0.005253713011815847,0.00213981211654566
8,0.12481694585455723,-0.11813253455320138,0.136925155336654,-0.17492842113096674,0.11232647801038415,-0.01099550907008734,0.035681534692193456,-0.11830732499826657,0.017092321732569984,-0.0897429450765313,-0.07305212797005983,-0.09951896716920362,0.17599794240152342,0.05812827629293871,-0.06356852903239368,0.024248709470605846,0.056966291782062015,-0.08981159697239227,0.017200000388080075,-0.2537688874020344,0.09220452339274673,0.004798431777643913,-0.22330901826280308,0.5194190446851541,0.025476954534926335,0.14336827887989306,-0.020184524293113695,-0.008226428997630892,0.12529305296969948,0.08793211146505282,0.0710753464219507,-0.1544746091816524,-0.15852006963878712,-0.09644824992494139,-0.12021983272207563,0.07315984503218587,-0.2805570765350198,-0.06164912525709226,0.04195443064843521,-0.09554502012494098,-0.2731645193260648,0.11158924016529709,0.1714482007255557,0.10916046663338579,0.0334603180063998,-0.008875083644088,-0.12714566841885092,0.01584051687777649,-0.19464953958948017,0.030968039426278002,-0.005932658519043656,0.03362958868668921,-0.02399155696790533,-0.08321306385703361,0.05653319339832209,-0.03480861085621478,-0.048634606760916556,0.021693890982763815,0.057133838978964506,0.009810243838677634,-0.00246393723665873,-0.014883458831548891,0.00883640998275189,0.016263416633658503
9,0.1285886077257531,-0.1373211350291983,0.14462931897370332,-0.143733767157887,0.10582671068356855,-0.012565815140692993,-0.006435715015874796,-0.1046631328673262,0.011058023057867516,-0.012113351370678885,-0.013280969656552455,-0.04125806903654858,0.05424508964319319,0.011287113619319451,-0.03158056829480371,-0.00508580851544241,0.04351981490721599,-0.03852567540812705,-0.038314507372136555,-0.19978650659283467,-0.027688128933685094,-0.12010389136555877,-0.07878289532684783,0.21268230980970787,-0.0382445943585749,-0.0004665964639096465,0.01443302858035038,0.01329957376672367,-0.006342669488859077,0.005074679400454144,0.00680410831355564,0.033592384369215134,0.01895313008121961,0.04912062550013717,0.08872496784767886,-0.04343212489879079,0.14114465328314657,-0.046507297389006434,0.020386973920916193,-0.0037369599703134908,0.1586639835638877,-0.05449688735849162,-0.11604544203180499,-0.029723239767595718,0.003758488168143232,0.03506496144098206,0.15617569381620067,0.2446868498419009,0.550978696691269,0.13048188369119942,-0.0678441324701583,0.14008462810208122,-0.02828628991101301,0.1068249403533737,-0.0445184021542224,0.01899951316858623,0.21791715420811894,-0.23085711717234159,-0.30484525739513413,-0.01180827091812172,0.03456314987222517,0.0984733308507457,-0.09994170082464748,-0.2068649718247898
10,0.13771169505230751,-0.13612456705806283,0.0906163263023143,-0.06481521186279031,0.04694027351065295,0.002289958978084594,-0.01838008118444323,-0.1133141425526972,0.03304835983945403,-0.010156643468692494,0.00018448083693628492,0.011326253024304678,-0.05967154644863176,-0.04171647713885397,0.024886806796669603,-0.012673266684249805,0.02032276732605645,-0.008803812816597237,-0.057482373236775845,-0.10541718433728434,-0.06075644950557133,-0.13169511402384057,0.010707552002042708,-0.014169310857566217,-0.06405021541433459,-0.0581630586187022,0.03012621394479619,-0.028370834221056476,-0.07896938894189412,-0.0779095335072146,0.012152500973582031,-0.017895908362064512,0.03623206078194756,0.03615778163626526,0.066463219254375,-0.017564276403238693,0.17488603861863464,0.011742364959713508,0.06920139461658853,-0.00655693071492564,0.02662278388999511,-0.015139993678058163,-0.021572844400834734,-0.010312131547961977,-0.04478385161387189,0.03213225102837772,0.11242052368658338,0.3114725672869144,0.0965693399336437,0.04968616272262195,-0.05600889050076934,0.12419643949027423,-0.02375964110091695,-0.031399532799396335,-0.07842893616426465,-0.08639188442441348,-0.30256985210110415,0.06678493969126195,0.5279679872427684,-0.2719583704272469,0.029794787432788405,-0.17921430291124357,-0.12105025758785783,0.41239544466309425
11,0.1406010557178116,-0.13116992346817538,0.039534926958631096,0.0031777631578569603,-0.0023624262922493176,0.01548892158311567,-0.03347617804842251,-0.12459727908721979,0.054186807234162165,-0.03474408019226752,0.01281223538863202,0.06100321045023778,-0.1317573713371801,-0.07817352039468525,0.051711019027104316,-0.017103583642141137,-0.0015657235817759102,-0.023374091803398885,-0.014480509081768761,-0.07992131537254762,0.00048037536333633835,-0.09623630470074225,0.034588754157694836,-0.08120489555520166,-0.026108708879888864,-0.05379340978658034,0.028595794169459798,-0.02461045889062425,-0.09662135175365277,-0.10987663238402084,0.021994198865481013,-0.1065773934429651,-0.02294256971110667,-0.030965783120877964,0.016023228026524085,-0.01073416605581861,0.09276230453087296,0.05879562438801978,-0.011729541805735974,0.017712405467780974,-0.096715441920558,0.039955500569010795,0.029336778287237363,-0.02592163450674406,-0.05393871375192509,0.007555782079572929,0.11669079268667149,0.18086431763807062,-0.26049765410229087,-0.12361689302089504,-0.3093791734867681,0.010067605727414497,0.0994576053806683,0.1462495419273098,-0.06781357336799554,0.029187353600328703,-0.15427076805476633,-0.008291724991578243,-0.01785400408711485,-0.10001402289517947,-0.01536129916558835,-0.1200074773610692,0.49510596250427813,-0.511716116840116
12,0.14074272361276743,-0.12550629618758108,0.013471313657990206,0.04097262938415613,-0.032978217207432686,0.022395721755242716,-0.042580650993962355,-0.12367494746876095,0.05983065032640635,-0.042649188355674716,0.022610374355916216,0.08798828999298253,-0.1577674097098693,-0.09058115484213504,0.07212043510120647,-0.012666984012004036,-0.00748581807085473,-0.03939771420005962,0.023561544579092958,-0.07717696310995778,0.07078096034390988,-0.05214958730319723,0.022245634056944658,-0.07739718563805603,0.010744517443277923,-0.02495515974497152,0.019244973658714647,-0.0005158019515993165,-0.08252839903249765,-0.11826992310221218,0.035287384703768514,-0.16139834754986362,-0.06968108098489068,-0.08169782719056992,-0.013368654596115151,-0.0638168080904191,0.02682986575107163,0.11032777622744946,-0.12769451304545568,0.01646562433197151,-0.04678409240184394,0.042040560978680794,0.07923534390045799,-0.039525477762227916,-0.012640624869984612,0.009387839876507098,0.0245627815718506,0.10694965094828324,-0.2649779108717878,-0.14638934546156337,-0.3297360555279821,-0.08943993285457394,0.13928711069787025,0.18783755134386523,-0.0268230237700742,0.07080212539651667,0.09546044711747716,-0.02118741532419978,-0.3267463253913856,0.18712909142223277,0.039927763021276534,0.16630789556562592,-0.4183778782284411,0.35564040074221065
13,0.13689691284775005,-0.10448100936819452,-0.049017580053139644,0.12410548849202546,-0.09898059287225829,0.034716636863348346,-0.05607240340487693,-0.07208450738974354,0.0432156573414893,0.00382484737815017,0.08612011209602327,0.13609091116963934,-0.18256531316018282,-0.08093416527517378,0.10126124529015157,0.0071588572748606805,-0.016884289388563636,-0.04991041116409199,0.14030864921754235,-0.057826243304889516,0.24230839039767355,0.12251868483604285,-0.017619930014640642,0.049940181720378396,0.15211288519185318,0.08528827307760899,-0.036713975385929784,0.07270248194864803,-0.034377618892706116,-0.09770166486317865,0.044710223306293324,-0.2306096987432838,-0.13773722642806915,-0.15711521471427164,-0.06840413475581428,-0.15834322230024103,-0.10030300980205589,0.11471676046329596,-0.38423406988351244,0.0013541079999109147,0.40010072202105007,-0.07888702664125619,0.08891833846092109,-0.08378449306531549,0.11388722836916795,-0.014529283912881571,-0.0958434653092558,0.04592406972911266,0.07090273237482334,0.012277868781755276,0.20835911820917136,0.08936281951755448,-0.0693838847922996,-0.2153942865113406,-0.04833228356647737,-0.08187602389915666,0.1897681780786415,0.0023476678688295755,0.17130385424380018,-0.06856567424910702,-0.01795471711969498,0.014316887297622342,0.09321854206846299,-0.06182329861848936
14,0.13809605337542258,-0.08496563668232336,-0.08497862156161594,0.16481067396030544,-0.10041314852601949,0.03467495815394396,-0.02186317748281564,-0.03186031701620079,-0.05436734518163855,0.1252517948282889,0.10951655808828276,0.011269266300490827,0.06021246351844761,0.08038318153551187,-0.03589701538050309,0.029436718833035246,0.0335435430241105,-0.0033338867499750346,0.08973155828696702,0.017002025923619185,0.08366432096547852,0.10185050963975736,0.006340214005052899,0.151417090163195,0.13476140977078743,0.06204629166287662,-0.019352595774219807,0.024084968992433918,-0.1733909407221318,-0.1148005803328994,-0.020845431917180635,0.1360898640627758,0.08108984914246714,0.06354044732977854,0.022208479907117894,-0.011777110751699512,0.03430487133873841,-0.017302648750416712,-0.049509667342167094,0.015288750777898735,-0.053799376095089356,-0.05949787387145038,-0.15223674611354912,-0.040879570556101696,-0.02502411545771846,-0.04122781772044909,0.10564154480123111,0.03573580001612764,-0.26382569118808363,0.5080815784908163,0.14201665502450767,0.12381236098404172,-0.18724157579050105,0.08767027430800686,-0.07481860047474359,0.45264180236183515,-0.2257169837993808,-0.08351019537479373,-0.08367485102901016,0.049832525123731375,-0.0417176701818204,0.0021828781427792043,-0.038381306610075355,0.0026972010983746866
15,0.14029356581442048,-0.05119049857725565,-0.10159909505554061,0.15524182407060855,-0.05197811014260181,0.029128848192218473,0.03073912138674892,-0.05152104578298766,-0.09340087110305173,0.1904165108645477,0.07332661780164301,-0.10248134430365742,0.1817457061768767,0.14346758304104176,-0.08921876237953713,0.0370073805121985,0.051246845520227735,0.06083170275636906,-0.029485892731832636,0.04377640327649038,-0.15447144007578756,-0.016047113979726066,0.0364810625590993,0.05054148826045504,0.005095922610339448,-0.04104408530022691,0.013975357876624406,0.01662195774122674,-0.11689533919803802,-0.06889770736309986,-0.019085482842401517,-0.07297287115840531,-0.006229215763747374,-0.03160508039802889,0.014719668755807231,-0.09646089256919732,0.08379810926452988,0.14302807325482106,-0.08190527862937996,-0.020790112451062808,-0.014729354122838576,0.047249556400498244,0.1498008014034962,0.011541892013553219,-0.00805469793475908,0.021064167615191597,-0.053919967950800965,0.04869583362365022,0.014380344591652468,0.19505105292746894,-0.056274713559881895,-0.37443470241222887,-0.3743600264848798,0.2591655621522335,0.23343540305180618,-0.4659832343728358,0.03007075704456808,0.07354778588273164,-0.022451738847143188,-0.03375565695863274,0.05598820448626535,0.012978036724194973,0.026768365623169962,-0.019745688632961347
16,0.11774668094101204,-0.12392851060088443,0.18217753471734127,-0.21050667953357444,0.14359914213219346,-0.03784423220368844,0.01762046601020687,0.08595778775550529,-0.08226564041583712,0.21333116480183797,0.08415756223916748,-0.0019268614829774516,-0.00030580420260495345,0.09816623350913312,-0.011184894584011618,0.024641431483407028,0.02925971900413618,0.0061453207112623295,0.09505458127996023,-0.06864587184998935,0.16922278869219687,0.005742893691179668,-0.1058385428637766,0.00862369276841747,-0.0008901336652094513,0.03360310205217382,-0.006109697824402498,-0.010508448777457408,0.1530402979465017,0.15547591829840945,0.003087573229554665,0.016536680257694752,0.02042322593411152,0.04907863191871971,0.2175967533495738,-0.1636470342301449,0.3840967729311957,0.18166715448439116,0.01793866038290194,0.04383861060299686,0.15236650362170626,0.008570949742909714,-0.004250371540266092,-0.08225174484526962,-0.005402177063693163,-0.08781799870523258,-0.0942426316389507,-0.5078300277630963,-0.17153105930545534,-0.06015641182074145,-0.11665388022015821,0.05765425304457625,-0.04226928963752215,-0.005007208138525107,-0.08910690633706071,-0.06617592657957666,-0.11066810494172905,-0.09530008382104518,0.057867701794170195,-0.0521674824145289,0.06579365601469656,-0.0258599193708969,-0.13912180798191753,-0.09936662432079654
17,0.12421820152758477,-0.13727262930540607,0.1729109888550249,-0.17759095973760655,0.12459590513216184,-0.03500855731298771,-0.004926595077465723,0.0495821906281903,-0.04823857254228968,0.12737421096468005,0.05370705184027036,-0.011940098304757396,-0.002745051906274304,0.04202722040123711,-0.014557540908670175,0.0003762504727716845,0.030260057813415814,0.011023988472853533,0.043211865179980935,-0.025377579968394015,0.03842249029561296,-0.014081816535120334,-0.011431433642473968,0.016568759060323984,0.016555230073977356,0.00988458558769615,0.010333037816239385,0.0042341260032801725,0.030717608169218688,0.0338252500032708,-0.011503237414462412,-0.015051013452764994,0.012252492405582772,-9.396872013310575e-05,0.05689606658191165,-0.020907200617306974,0.15977964317715904,-0.03629808726516273,0.04697360266307121,0.014948093520474728,0.08128675510645891,-0.054518652583164864,-0.10999906968294407,-0.05911507338027333,0.035470498271786374,0.0638535616901188,-0.02537615585727382,0.04631949084830139,0.004781070735123155,-0.004969549786884742,0.1290431147328867,-0.26567377632484945,0.12788213976406665,0.03713147738336164,0.17540169866194485,0.23500594969918304,0.21573073738851564,0.2887440127030631,-0.10862725067481616,0.07092654626859607,-0.15322081094753448,0.022105388087716248,0.5118824822772997,0.40346047264556456
18,0.13430623516051318,-0.14182488928700454,0.1217805525079192,-0.10161361234082757,0.06470847652599013,-0.025900177304387373,-0.0243499889883289,0.03736257861823317,-0.000564866859960423,0.024616746295261505,0.008190195187361513,0.004775667887968904,-0.04371957785271241,-0.021739800007994255,0.006535636900526429,-0.02138727682576752,0.013433669157426942,0.03930674457438453,-0.04987905087568795,0.024528223021653327,-0.10597917843752931,-0.02156081487033973,0.045212590402818914,0.015418785337254888,-0.005002796453581926,-0.019785418237939834,0.010421923779090132,-0.012539479130184689,-0.1095623918051693,-0.08993674220218575,0.0005105346600552821,-0.07664105922051137,-0.0034933647883950716,-0.053153291992595095,-0.023390776179678763,0.05147864766198769,0.09340667201960244,-0.101778742284411,0.06692862292639484,0.029980477337864693,0.04480377000766344,-0.08116098276102088,-0.11999657488603732,-0.015933567444043097,-0.014652916650203435,0.052749273385113135,-0.005746711903438083,0.0853218402958032,-0.013623871284102529,-0.07048170236608192,0.2189990225610417,-0.06844486518903886,0.0017623443556914666,-0.07041016953238723,-0.005876998364173332,-0.07267082169420494,-0.12086349742206978,0.3160629879008873,0.1905727971762974,0.6489401627556004,-0.10501137064803802,-0.005360726815072954,-0.2576513294100093,-0.3151310232753105
19,0.13948601681257125,-0.13600971666787556,0.06052322076496031,-0.014063542889925658,-0.006282956437889862,-0.01179712995659211,-0.03678883201114182,0.05982932380636971,0.02994656905779116,-0.04760520238803549,-0.019710150611481757,0.04549740500553151,-0.08957563888020381,-0.06852786974145836,0.025864499020987475,-0.019677931201834864,-0.0031879307495371184,0.024744436481292008,-0.07591158719417607,0.02661225715032081,-0.13582183356387945,-0.0361558332699099,0.03659911013141094,0.011009441846838997,-0.016893412231501787,-0.02877550829131903,0.02122317385580382,-0.013549056577040641,-0.15169079992440837,-0.10387955379416844,0.0037269162003747795,-0.16598266278905832,-0.027485171387810092,-0.061788905560133216,-0.037827424344156334,0.0712631484510748,0.08500777019753261,-0.0011412671403976445,0.10048523891017994,0.028330579497438786,-0.18029524537077007,0.07702678956348141,0.01921465204607377,0.09507782282926466,-0.13253322316627678,-0.14396294660802472,0.2862400934090101,-0.2000077583275499,-0.04581151357915722,-0.27374781027067685,0.45761037327052284,0.19752640224267906,-0.31766133872819596,-0.007633188230997394,-0.10374539749463305,-0.03922618901611157,0.06956449088194575,0.11181264663319926,-0.23597264289698056,-0.2171854605792608,0.17435097887441753,0.09988422074988375,0.03577194392449515,0.06625768093863404
20,0.13937622322403662,-0.1290134212709307,0.002101284216952344,0.07391542819651942,-0.0636669512554153,-0.0051076544930286644,-0.059785768075813754,0.10553996033515464,0.03778048047431745,-0.1070910212805761,-0.02351374676868318,0.08481344757565634,-0.10979216157382327,-0.09306342333013104,0.03959297683183269,-0.023468526398216172,-0.0056459204713872335,0.003817472194880406,-0.017295516008202436,0.035834460214305836,-0.024306318651776584,0.04579674570459778,0.009226896100297165,0.042152247927937425,0.028253287922259424,0.03502264249926729,-0.02270032600629139,-0.009783583962043626,-0.06490730329175809,-0.06191970940851743,0.021655712112640266,-0.025159038858040883,-0.003503793072759831,-0.031051913264278613,0.04098874910131424,-0.03282245813178328,0.06343166526427514,0.06016881677632186,-0.02264452966749822,0.054858496003110185,-0.3183016473984505,0.030095648478092638,-0.12723919247713586,0.023163544444468765,-0.09237057358810512,-0.07829246954740186,0.1437165827407417,-0.20011876322630934,0.10922085303541385,-0.02485225676509594,-0.019037456593046585,-0.05601330906511573,0.05290434751077297,-0.04057802984482409,0.47925065368700115,0.027600349909548745,0.1588420354234257,-0.462822909982177,0.2772907275808645,0.08212281887238705,-0.30766505737133937,-0.013491123024117707,-0.0062755590604038625,0.011516547890808068
21,0.1364238504858507,-0.11506315216225314,-0.038152529440978834,0.13496871799045915,-0.10888003736823414,0.006249637680760341,-0.07113002245230818,0.1314445254351231,0.023019759120802993,-0.10783832816514155,-0.01530788882501308,0.10005630758382042,-0.08288241747976095,-0.07206264396183909,0.03489937844716354,-0.036457642104760046,0.0009537651152001086,-0.033326227247507875,0.07741026428187098,-0.025410845169545726,0.1515538561726332,0.08504867254610532,-0.022627961498488745,0.06407757705040654,0.09166109208389756,0.09064279234237799,-0.036359389489447266,0.006495224326508106,-0.04512260064326379,-0.059270484381110836,0.009409640177528942,0.08726984844050584,0.04848552792454575,0.0029917960055959175,0.03880207951309406,-0.06771568381791655,0.03298917850084622,0.1495265093811972,-0.04827683451465026,0.0322692446507958,-0.409989481997713,0.03157045096041769,-0.13972916379571984,0.03188274562475847,-0.016912951249667674,0.06023658589535426,-0.13639932229561957,-0.15017689315700178,0.37501736785044393,0.1417350580571776,-0.02968591923160549,-0.2266364684293535,0.2652272986153791,-0.1255571271204956,-0.23761356873125689,-0.1345474126565856,-0.18465003079660053,0.27331937139044055,-0.14288055046215722,-0.07239103133554421,0.14857042293272313,-0.05545061508776151,0.00728465136197759,-0.01245200013294255
22,0.13574661763663567,-0.08925299754265875,-0.0779374150640093,0.17227980191653425,-0.1078914251981293,0.005601447136108118,-0.04058753013759654,0.09430125708961813,-0.061783527208699736,0.035586713926437384,0.034734493221006045,-0.010324821324057286,0.13234775908090954,0.08852342383366474,-0.059056722011718805,-0.010862423195200865,0.034780047421271665,-0.06676817220591105,0.14999387001847486,-0.07407686089276025,0.22339765209797377,0.025396204422533195,-0.003391876152099599,0.10826842666092351,0.13999023690424262,0.03094827336171644,0.009743012992572825,0.019523547490532644,-0.2302432202433788,-0.19121313997204528,-0.06478730461914822,0.2852622633909906,0.2036580799222683,0.16873495804072688,0.08694059673991487,0.0892470892904371,-0.007090099936271632,-0.12754077248716095,0.2162233959705015,-0.07232685595222783,0.04918311866031871,0.0003353372601562765,-0.05821102261881922,-0.02143955047225135,0.07592287254397988,0.10938046490380293,-0.22252184520645213,0.07605576043595813,-0.11129558924250144,-0.3472439447822613,0.0340246251635134,0.2949723733320121,0.13652665137360606,0.14994280557867834,0.11209948704233774,-0.22591506896265603,0.16372570500046119,0.008055332735314773,0.025798356090834404,-0.022501735561238453,0.02860247808417539,-0.001253205572100886,0.007972166726226304,0.017814125259853653
23,0.13911435249937507,-0.061081039439621544,-0.09312537369346617,0.16194805619996672,-0.07205767774179304,0.011174840621028902,0.022061518218142034,0.03902082621187092,-0.09664215846318627,0.12166949657587037,0.014273981456887932,-0.12599789651776036,0.22338503774579305,0.1649193287129741,-0.10028548864450679,-0.005739480231344574,0.03795857012679699,-0.023346808591478113,0.055903162735943895,-0.07169662388010536,0.022710223823408864,-0.11977714034403789,0.04827825458025413,-0.026461643696753606,0.021095332581123866,-0.048893070937665956,0.07103642454806372,-0.007432402324146971,-0.16805973469355262,-0.14777867964645047,-0.034004673385496564,-0.06395093596801704,0.03440162738627892,0.01140066085106399,-0.01398420179473283,0.033743546527863384,-0.03800456007661754,0.021408404328296625,0.14891494785732684,-0.03638118095344538,0.15969925489957568,0.16783182674940528,0.3534906493512791,0.12171996426248216,-0.04541051612088649,-0.08582324177727964,0.13837420521253505,-0.09724209288767566,0.2081906742077738,-0.21726401891146735,-0.1561260372739572,-0.2372818991442883,0.01881979459420964,-0.38013416831734415,-0.12197605198477662,0.3323823834931207,-0.05638241545600374,-0.0651689401287423,0.045301376471493446,0.056997609848861194,-0.044689005792700756,0.00020245398998339735,-0.006306458028700446,-0.011971244260696706
24,0.11888719274883201,-0.11831261624565062,0.17431591400782387,-0.1872888832431535,0.13310080556671164,-0.05759994834883382,0.026523610064812547,0.17346875159194453,-0.09680433573376536,0.2594036515373069,0.09504080961304164,-0.002145787442330187,-0.026760646734046784,0.07924281177999026,-0.0028764242476894686,0.043646833934240556,-0.012614219202441206,0.030399587398209596,0.13768008474539642,0.15456226427556607,0.17557857277849237,0.05832971566816285,0.07450032851647374,-0.31476934891285885,0.054172742041467645,-0.01583161484100351,-0.0006592779735206944,0.004821502137277112,0.07493046621406346,0.06775445056647814,-0.02053206601637215,0.16776040542989878,0.01945850314527566,0.07754359284132953,-0.07996564779075424,-0.03280198413161196,-0.34176703699370653,0.13989413577969523,-0.17316058155173822,-0.03997728823872014,-0.2156779917731233,0.09636307709976064,0.14769507740412147,0.08813749872021728,-0.05520795227555461,-0.09132954156095371,0.14713106253294173,0.17410293744019673,0.13875907026168363,0.01777393800675664,-0.11338410092420548,0.2993255312058226,-0.13597369132947082,-0.025191060176399466,0.005141926014399945,-0.11645437084091473,-0.0479881479538626,0.012864652904678666,-0.033172005091501644,0.18027422579976343,-0.045510651453962526,0.02918339619953535,0.08456316817015114,0.061422870538226274
25,0.12588192480269644,-0.13376843813597136,0.1600584334279241,-0.16112381587237803,0.1074051503388101,-0.049622760318174114,-0.00455253407949776,0.14257462429021425,-0.06343883247745787,0.15624893175142404,0.0523088639250574,-0.008455778832604358,-0.02255024607227235,0.04516698715353684,-0.0058693543146820515,0.0067076309219885055,0.005245992365510488,0.03902164227266903,0.05545928809837125,0.11970608371131145,0.007052445240849534,0.04004847449211579,0.07055191267020047,-0.14076422742228675,0.041964541661373506,0.006129247973946983,0.005762924090164524,0.0018951087005925904,-0.018562326431724563,-0.007429107407870408,-0.015505789665513846,0.011261269004935695,-0.008860552462953062,-0.016907013445130376,-0.10426041647502288,0.06149207271734981,-0.1720306648578238,-0.09876459187385857,-0.007740855808456404,-0.007423639815337592,-0.029625934672151646,-0.030879289338829025,-0.04183050743570715,0.011120763188154609,0.04572079020932862,0.07561421286654535,-0.044669746453646623,0.15902461315367172,-0.10918174565046823,-0.012113644204047161,0.1667963524389146,-0.33698904183488726,0.18568382160527236,0.05113277140285814,0.10592935752779772,0.17936277845647267,0.14272885581087952,-0.016500140724223275,0.05620532236391805,-0.48696482688813664,0.08810835582863497,-0.05501587268830576,-0.35718405106175277,-0.26820963248330043
26,0.13312399133382075,-0.13917113838864015,0.11637194056653843,-0.0973849443057724,0.0486873158550539,-0.04637627603362175,-0.02616076597595231,0.1673344739248459,-0.017350707236476783,0.013654921740431513,-0.00951749089444794,0.0009818052383234192,-0.02902464248924938,-0.009394096648144945,0.004992295158153082,-0.00890441559480204,-0.0005420753409299817,0.07912015922938603,-0.06743130150458337,0.14948692455533633,-0.1739167576069141,0.06672978270364585,0.05803531525494687,-0.004408061508055255,0.022802795798708836,0.005402951980901766,-0.0006586797345163042,0.009304070969910164,-0.1146396066510639,-0.11246287235337674,-0.024131277458538145,-0.07245822474188424,-0.032764844442852194,-0.08449417863731144,-0.12399580761755293,0.13349660941711972,-0.12216184769791757,-0.19808914643801442,0.06262224865163794,-0.00382528959907652,0.13271184076494738,-0.09067220292296063,-0.06940556368436951,-0.014212593139411422,0.0703332142892425,0.09412178765008057,-0.2003858881928963,-0.06684699031916308,-0.03974508524860969,0.05891850078178748,0.005896191047344776,-0.12635911367479824,0.06405182721651838,-0.012835016635138849,-0.31737921700082666,-0.20130291576427944,-0.1882005241070046,-0.5378044263341253,-0.052403471274434565,0.12186125751602313,0.15417966433589977,0.06858557586987352,0.20904116237807224,0.17826372846298894
27,0.13663551921540218,-0.13452255302949095,0.05911162918365597,-0.018173724434645468,-0.015201710233740522,-0.039433291862812046,-0.04370514894407757,0.21381894331407156,0.02157104764636838,-0.11082520908532476,-0.061861405466971164,0.010920390613501649,-0.02245445979274582,-0.05729529657607685,0.003184596100758082,-0.01202078903935206,-0.015224599848939119,0.08921122823585126,-0.12712193638210478,0.16450024288676074,-0.25103871792182264,0.09761348565029226,0.02922411017580273,0.09776070207315121,-0.005835290346690392,-0.002655932508992556,-0.00035980051264682816,0.00822703860661328,-0.09881193940523775,-0.07950208164217684,-0.021698938784366073,-0.03531990785940056,0.0008893957644754355,-0.04757336062353025,-0.06903155450296451,0.06073262944258859,-0.1257268513287472,-0.11374451973250568,0.011053875721553669,0.01211530174568763,0.18534572124112003,-0.03499975671654848,0.010913782266730399,-0.014150074162912335,0.02951165922553068,-0.019973515014299253,-0.16872593575074826,-0.22711019846673047,0.06519631725640657,0.1120139343233388,-0.40670088711131774,0.23841098261906998,-0.12925972442109346,0.009722408596411294,0.017152686823950145,0.050020289142200886,0.03872327795562401,0.31871948532253536,-0.09046575403508665,-0.21268700785577518,-0.39452173883743297,-0.06247181160179181,-0.07332242637248465,-0.007830869794902828
28,0.13582341210972135,-0.12350455292580996,0.00888996736904314,0.061879213626254266,-0.06321219290776416,-0.03844959607196074,-0.04870312892656383,0.28120241770661375,0.028137170403122785,-0.20019006522828173,-0.0981446020162995,0.021833956267567057,-0.007293013644133139,-0.06884685927203663,0.014447121148077925,-0.015909136964537593,-0.013587429572521653,0.059256973428409965,-0.11578660172777372,0.11969988912971499,-0.17784182448109526,0.09084063717675256,-0.02696088059082824,0.1110170569800033,-0.03438565133741986,0.004958078484043227,-0.027721388246867373,-0.0026655517542243934,0.08684415017356945,0.09317309934806459,-0.012407341888336696,0.0913840980325219,0.03614270492283636,0.06777360630885307,0.06476580650472939,-0.07257110809064579,-0.0038705193156173268,0.0954282463951024,-0.03187888201466374,-0.048734181000292476,0.14009346564206826,0.08060971901165795,0.19928106596408535,0.013698544132332603,0.020270539284059915,-0.04087293963341439,0.05542386699904624,0.03212748970932436,-0.034254747298557015,0.10172843327793343,-0.09211698745352696,0.08579695958590086,0.08325956451692773,0.06878544692841734,0.19939370031723436,0.19540214464936248,0.13722990355460118,0.07550354304213795,0.16499306426257304,0.15606443685775778,0.6401448393730106,-0.028240621409336957,0.0647241927039042,-0.015016115901967914
29,0.13346170976809774,-0.11118343353915922,-0.030453515501098382,0.11667991860403239,-0.09721401344582445,-0.029590752456680428,-0.05173785343097347,0.3019211535447812,0.020948868715870542,-0.21817341962445502,-0.10801575779606402,0.023133605128607477,0.015622258297397827,-0.05087041585316663,0.007211145111588485,-0.02235901064740001,-0.014763812487368418,-0.002712512696704139,-0.06430599294570219,0.024566153093842635,-0.0318751875066878,0.0567255151610916,-0.07945895597902385,0.07009582516440899,-0.06861719076669018,0.00646948707539674,-0.03746542017046608,0.0048597860761425415,0.23793124245960565,0.22779323120062867,-0.012814765528941839,0.15540348434071885,0.05898854270790581,0.1386101284283222,0.10798297874563187,-0.0961717480329487,0.08034023905917514,0.14713488039719416,0.004494685024063361,-0.0826170140027803,0.12678506359786434,0.09261900179113447,0.2366426911817608,0.0074348592828384075,0.017821591814877535,0.020312075591224468,0.11357310753487657,0.2686473520438256,-0.1569040544688418,-0.049126413430078966,0.24589921817542174,-0.13739515756526288,0.04962950649153905,0.027005568904447858,-0.18518268881316385,-0.11674197806838574,-0.1296557627014424,-0.09184576371137486,-0.13061106880107892,-0.0424388202634427,-0.4201848600585117,0.05768573755697083,-0.03798846929273214,-0.0100470166130113
30,0.13482275779491354,-0.09144510201016433,-0.067344168992659,0.14905814230425082,-0.09865708735771941,-0.015720354209309065,-0.041427522461686836,0.25350725129003115,-0.0151854334288845,-0.13795664203147412,-0.10742624149869576,-0.04145997237792753,0.11595616693025428,0.011072297086693012,-0.033524809678604744,-0.0339821244654405,-0.00897252989730749,-0.09900298782485112,0.035753233850336186,-0.14891538181136965,0.16324127363372326,-0.1536017013167001,-0.03279349864190151,-0.20088247899845374,-0.07366304707641348,-0.03553472936740121,0.019234926838621852,-0.026563278963743664,0.2236570460583232,0.16898259404104488,0.03914764801479559,-0.03895865734360491,-0.07842759437664347,-0.06402358169303332,-0.0519196610772646,0.026344064824649873,-0.0005257846708719358,-0.10441348961027094,-0.028451898940914558,0.06691467995322689,-0.09449757893402486,-0.194611034305494,-0.3290821062124646,-0.060820562368924955,0.018237705902915333,0.09053991653331768,-0.17741022459875855,0.12312834091189562,-0.002240715042256744,-0.1869475445009371,-0.14977861757877436,-0.08846827174440454,-0.5065482531413871,-0.0684791143055212,-0.03185484366461458,0.15770403175004596,0.018332840539648843,-0.025683312946007404,0.03244615736686765,0.0170699273073949,0.09454839665146356,-0.0227314443163857,0.0025869147741010567,0.0012941068975614728
31,0.13734218936469547,-0.07032288498360487,-0.08279701209274426,0.15355286855215988,-0.08160530792546394,-0.010989338156404545,0.004190968694450993,0.1735005811835893,-0.0628587370169285,-0.013246814192760933,-0.08411603796804425,-0.12853393251442835,0.2092963666533978,0.09429897405526681,-0.0691990868593675,-0.02932716333431321,-0.010292454132426795,-0.09554019089617766,0.02935488466421171,-0.17256989958837843,0.10655169342480078,-0.26145220133289393,0.009977773055316996,-0.2735886631209587,-0.11124385303954523,-0.09665307091921121,0.07016977010537566,-0.026049035320115238,0.08268854547278874,0.05226255212212202,0.021528858092354244,-0.2342659905908382,-0.16773749814366218,-0.12887786096146842,-0.08028052371615574,0.09735565660397952,-0.028686013105829883,-0.13930798219196905,0.0032451070551192673,0.029693173715025112,0.09007220740607938,-0.019179108924006837,-0.031763393079060676,-0.0006774253290729587,-0.032457148939644936,-0.10015923668084697,0.17378435630706274,-0.1607392511925501,-0.037698742536037944,0.3242583538630213,0.11374586194097328,0.19787356960760305,0.3991137055142143,0.13998503253123007,0.07409099390807675,-0.17239955604145646,-0.0054645161834263505,0.06328264484402084,-0.01524127100278444,-0.007694761837435282,-0.019781113826909114,0.004999073218780627,0.0017167771883960792,0.01073206979171612
32,0.12117367571168823,0.18195184557966473,0.11080966222265946,0.046621854935589103,-0.028455125243625964,0.11137192029003497,0.07076335629770834,-0.0026732001147662,0.09546905261049846,0.0573515308423477,-0.031185287942879555,0.08169612047378776,0.018193812927367648,0.08526302952034125,0.07491090636930292,-0.29682731961768605,0.09078671424135122,0.0345615919080809,-0.1357500499993353,0.06906684931210876,0.004842356815921239,-0.1349522583457656,-0.0044359882677179885,0.0001844022639568843,0.12813156664524816,0.0461933638114993,0.12498935395505881,-0.10436641134495622,-0.02521955556782035,0.0640866269557436,-0.037277977352368624,0.049566253351928616,-0.10820171901111235,-0.07972735269873293,-0.2741888138064944,-0.32788116312380056,-0.08507019819972789,0.219753237277363,0.1976578963439807,-0.3584876445619518,0.1419537453619028,0.2848425034121532,-0.317838368707008,0.044004013739092254,-0.1727589157229138,0.17731320848001847,-0.014582857880543752,-0.02855162455532151,-0.030500268973557274,0.00804466622084285,0.010561646509419986,0.03724049349111397,0.007167014255519702,-0.0035413319154044554,0.00359408736315206,0.015225350014531291,0.00998571798688779,-0.011455324154923476,-0.00012375528087744947,0.00418983774251519,-0.01045793087196871,-0.005288772418783907,0.002569091818927005,-0.0017444396256420802
33,0.1166189261892379,0.09464703659780918,-0.08647937095666951,0.16406649232040332,0.3477518264769014,0.03537843217251556,0.11678586517292217,0.045683362353334755,0.09504738626543524,0.09124568364919179,-0.014752640461660011,0.061862959248493256,0.09001387285901323,-0.17700756762737951,-0.027608499887273645,0.04183113144375808,0.15727057738608066,0.07472270672648265,-0.06661720783335462,-0.10041202903247419,-0.04273654785728144,0.16951389753737053,-0.15379237181957445,-0.13727501114699323,-0.023332905510581748,-0.07187747736503515,-0.11114977802272571,0.08047370610263935,0.24983228195390175,-0.2968783718426671,0.10426932962960109,-0.14462683255687236,0.2648759792881902,-0.1529505353153153,0.38005723187483587,-0.13377120580168214,-0.20405162170039098,-0.17353317838255872,0.03823118272221227,-0.1118071582993608,-0.008070636870437985,0.21924302082486677,-0.10906511555328749,-0.10766042442408315,-0.009665430778924324,0.012871861677255625,0.034929417578493924,-0.003048172370060359,-0.013391598835295906,0.012013487660231567,0.016940524784601577,-0.009117115391090214,-0.01908628057881172,-0.014035325271701815,-0.029353614293644498,0.004924348644620019,0.005334616200312725,0.007843547153918273,-0.0006466413287291826,0.0019468811999747502,0.004177038754654035,0.001717144150701233,-0.004548215545065237,-0.004368616503734157
34,0.10676221662015258,0.1651593619095574,0.12147139934496641,0.17034010574813233,0.2235982620349952,0.07932215706625517,0.059640015411241525,0.06476745438281957,0.25342051966184437,0.018678520354409447,0.014005983519693715,0.2262813909599371,0.10703258615264702,-0.0010714551812564053,-0.12707356653822455,0.06539707119238247,0.06859155793554937,0.17673118532566506,-0.09059610720242882,-0.18456596357606067,0.08266253074499086,0.1815849261482674,0.062232414413813525,-0.04005574869318887,-0.1360054778389087,0.08089410639387182,0.14198724393858403,-0.14904897903764358,0.024824906035657568,-0.06313179676214231,-0.06297289483713003,0.07833861984251453,0.011957191565114485,0.205068157030748,-0.4184865093245157,0.0214564551498731,0.3125912639378601,-0.25133404991612884,-0.2697443403670556,-0.10299637862969188,-0.07392303702321971,-0.04712566069826049,0.14992504018671957,0.020189667830039587,0.048975600293171356,-0.04894551188302283,-0.006434449426793498,-0.031183402903174076,0.019379559619029124,-0.023197868488228857,-0.010720269352533368,-0.0019106252941465396,0.011344531215621512,-0.004734988488593564,0.018921397063776907,0.002077063607994703,-0.007259392842082366,-0.0021027033286855623,-0.003459092966950378,-0.002299725293338828,0.0017239881090151676,-0.001897625121969032,0.00035097785645868233,0.00015804987670441084
35,0.11807684656575654,0.10071208825620112,-0.12023751058932665,0.05211700499115677,0.31027532145796655,0.11972965628826573,-0.16345577054032226,0.03167056889557637,0.12988318346998629,0.06849601019189189,-0.2017263367860906,0.09705591991464316,0.10563689426436507,0.022787081401925473,0.1612014585171591,0.19676664672758146,-0.10590177431522986,0.27712619818872475,-0.06601675610402911,-0.15473519212101988,0.15101610812606314,0.01571772182117602,0.2964331991616406,0.06625915459061013,-0.03266875823035604,-0.028334167042487843,-0.3488775856406479,0.02971264054789116,-0.11793524412393314,0.11382779762755331,-0.14924244394033925,0.12031018714130043,-0.19713791503299014,-0.19641927907309512,0.06244233451500597,0.12602410595218616,-0.06053699014642481,0.25876077008123866,0.19196262086589105,0.10933453981447513,0.06479753943804178,-0.11610624914592156,-0.0268550801248027,0.11613071802035832,0.017317746474658044,0.03587640254575254,0.03968649090684659,0.011771123864879218,-0.016497840611157083,0.008602258107980154,-0.013515581896675455,0.0016516696620786364,0.004078648171128019,0.00847824755466072,0.003525626309437979,0.0023718427344204263,0.010295835674116655,0.0002967807005368889,0.00028618964076262965,-0.005612369720590787,-0.0040348451649265815,9.561108214502234e-05,-0.001036087018245077,0.003814443060084622
36,0.11465306382250567,0.16397419126756857,-0.0005312770821596157,-0.05145354103793405,0.03749176262343523,0.16469944318529506,-0.35480402393206983,-0.02460572167306061,-0.025704112555569064,0.044603465133701635,-0.3007788767856438,0.07828837930657126,-0.04229665063290042,0.21429069061583997,0.1359914601953051,0.11535335178071007,-0.12682795064005994,-0.04305477351352027,0.13382121924581103,0.13012661689480567,0.046167478875482115,0.08697572780675306,0.010218820708109099,0.14707662487259873,-0.004490877896921958,-0.48927036264185053,0.25647234711757166,0.0936406538359474,-0.09319576535792917,0.17336338775473573,0.15026916926089798,-0.11852571128313552,0.1326645254629607,0.045533898368937724,0.02677673483919643,-0.13273580166719606,0.006305587145913451,-0.18277635428024955,-0.05146077448675427,-0.06104616510963699,-0.04823116996782867,0.08553445686938069,-0.040690846911650716,-0.04728966730664763,-0.05633240846019858,-0.20558343512622418,-0.0966633375924292,0.04675991309626768,0.01780703346378716,0.0015884393147715115,0.00721136535912187,-0.021195350888155117,0.017709955116235326,-0.006338259189837769,-0.017974994247900833,-0.003497023144733047,-0.0028632848855358883,-0.008201192541659574,0.00018474913931093573,0.0048144903260380345,0.0048721395790218835,-0.0059581495309836835,0.002080219308408654,-0.00022115047230336637
37,0.11926044320150823,0.10789224325660195,-0.17579148368292893,-0.14101643398150693,0.07345761263254018,0.17728460582704558,-0.2811572481017644,-0.020056922369102816,-0.17949032780253502,0.028817465134836677,-0.17990349036606904,0.015081418213764613,0.0070251839395220955,0.014796673605162743,0.16760051912839435,0.005000396276050423,0.12168462476779807,-0.1082565418234184,0.13612744754310827,-0.10564718859149108,-0.2080668206146264,0.12518813456751512,-0.24683449468289115,-0.17883449125297723,0.021548039951327536,0.168965768085416,0.07561006318451557,0.026901398769138052,-0.04417397668493972,-0.017916564974799418,0.029039491918466845,0.021227820615166357,-0.10135859832957403,0.1458392377228091,-0.06516968436740073,0.058828077211809306,-0.008364665058507435,0.013499266539460594,-0.020297772405738226,0.02760914594080048,-0.03677449214018624,-0.031263468074334805,0.13508967182004913,-0.1481450172948387,0.08842556708374495,0.5512059000330201,0.21510074182553035,-0.14215160085984652,0.01072676521399088,0.004773116526249163,0.0005263764784932817,0.04061867259118924,-0.04131122736661616,-0.000863537459498874,0.020094910195562286,0.013672802413281476,-0.010734606853227913,0.011587581179248851,0.014254350590918993,0.006999759175933845,-0.002900558300936662,0.0024307711373739455,-0.002690759211823852,-0.0006597806213595181
38,0.12142314296594854,0.10044948764161239,-0.1570514115418492,-0.16522169100213815,0.048277506243349214,0.24853818471792227,-0.05588069964553175,0.012794275493567804,-0.27235852291009155,-0.010324058433201356,0.010944264541064452,0.09127384586374801,0.08324215297539303,-0.11185763595762273,0.06765846870035676,-0.0882937096920502,0.00999436004726723,-0.17909317424645851,-0.03696416351566653,-0.12203413421193897,-0.17969082665041147,0.1087920539388072,-0.12773982630669534,-0.18348290014532095,-0.0749411063760847,0.32192044220413074,-0.07619724017546617,0.06922357835481949,-0.10402662614261576,-0.004859459538008412,0.006485496947425128,0.004293858462535376,-0.017496644275229328,0.06882679040604661,0.004780614390948283,-0.08738184553692449,0.03436696449181642,0.010704864164371955,0.03314874861192052,-0.08820973103823543,0.05272339220245226,-0.15451635107469716,-0.08191611980602562,0.3204984842092562,-0.1204345721548836,-0.48568189636855963,-0.19570737604493588,0.12641064302959548,-0.023604206763355742,-0.009300279878138168,-0.008424434712774907,-0.02663443568563207,0.04628821826459931,-0.0031766075311757402,0.002281193113721408,-0.00547344141609632,0.011864221073573544,-0.002560939469383905,-0.02177275520245544,0.002826437373279145,-0.0008014596454911788,-0.0018251234421527707,0.00943706989625244,-0.0012491263369041744
39,0.1111592657494594,0.14138762669982968,0.10800925114872527,-0.12617473422362702,-0.09120913057176676,0.2673642386270503,0.10673572562756069,0.02796866266846396,-0.265054830403298,-0.02107763553718299,0.1534783108013873,0.21283134595062966,0.10179844255402944,-0.06862064475540267,-0.1502449903699666,-0.23249877908231822,-0.26661926095377164,-0.31358681893181617,-0.3298406803660998,-0.0365976243574364,0.1283507116999374,0.12276997897697375,0.28472259230177643,0.08995054359537408,-0.04356889997781738,-0.15573953725506956,-0.038061273054971666,0.22422687270054617,0.06515045660371738,-0.011277202751238747,-0.19064693501487037,-0.015860659973003496,-0.013610747248788836,-0.05191648796251212,0.09738459801740475,0.10377346559865372,0.015613123421327132,-0.05352921745944139,-0.08342675190673815,0.030800800743594425,-0.04629154847893549,0.09434218224678043,0.0519724809125193,-0.09134789537823784,0.06841723361660237,0.16882348889445298,0.07151929477138871,-0.04120334797568231,-0.0009650995706497606,0.0041812456187190206,-0.014337603765034374,0.0037123691975581297,-0.02574213750506016,-0.011415624508543859,0.0015959342085869726,0.0015391715342160106,-0.009350958600638393,0.0015206216454685811,0.016208305877659618,-0.0033500047456423918,0.007105338353003143,-0.00034746080636066656,-0.0064896875697542655,0.0004646764725708269
40,0.12913743422541105,0.14169608897886907,-0.06887340380542997,0.003927091461274503,0.13004504181521756,0.12498580540695871,-0.015132781211587143,0.00024992000092160615,-0.0535197723176595,0.04721124842558638,-0.1098613492490467,0.01933007974161186,-0.03562697913797946,-0.04953621833206611,0.009004171081260955,-0.17363718359916655,0.07131133155121966,-0.009119650116663615,-0.19997498218356413,0.13900246307327782,0.03895661399449141,-0.24704946033744846,0.036459682059580154,0.04244114919385174,0.48047109650666925,0.1305615466763058,0.1281467088307095,-0.5266473687167791,0.03390452947962312,0.09430994685660106,0.06271885295286887,0.05717701800745779,0.04233812901009493,-0.0882193044773004,0.21841455222875827,0.14051013721482047,0.004930015534621343,-0.10886222454496709,-0.1337227346563915,0.20216291613566195,-0.019529233096009332,-0.034935546780872455,0.12480387636050741,-0.04521575056435592,0.07559352956282515,-0.101005709781561,-0.015867132773919355,0.033970536644027945,0.0070313352866766335,-0.0003889076559402474,0.005804262214172656,-0.005529012167659719,-0.0046309186419551535,0.0023907318308000747,-0.011756933864560948,-0.019385274246527487,0.002679816218377075,0.0011905346631290638,-0.007477757642684588,-0.007904530819242292,-0.0048438897899725775,0.011627194154430573,-1.2595618751262694e-05,0.003506403338926732
41,0.11000187084005766,0.17758384515745018,0.17539276872285683,0.17365630620184475,0.10154720691681335,0.03515583849794062,0.1258614949979623,0.023986916307665324,0.05808228538439617,0.030089615745034437,0.00039340246273477004,0.02470385149554241,-0.05431808964239896,-0.11173830567644895,-0.1661768739093084,-0.06961116524761515,0.06673903647909209,-0.12559072042814806,-0.012322803882142797,0.12143096049674894,0.042114950904219496,0.05761728269220858,-0.15319976480096573,0.05310213766490175,0.028312428432746863,-0.2198353796211025,0.14759815307026414,0.05684113017394313,0.04142683228176562,-0.15656426752127375,0.1080633569748091,0.0021601918553559724,-0.2641785158776838,0.22495366168959538,-0.009765790718403833,-0.19951543632683377,-0.16000397618084264,0.17234133228177445,0.3304623045778036,0.2284765135186429,-0.02239751604736681,-0.47789415084344067,0.09656912968129028,0.0065386556638727805,0.10055141163075812,-0.06166730265488908,0.07419927365173756,-0.011507161366521537,-0.007293507345771083,0.00802624069560994,-0.00019256021172429916,-0.019175999611225764,0.015094907935317606,0.011765846676374855,0.0026819574979570354,-0.018230748245307633,-8.49596956010723e-05,0.007888864817682532,-0.00511621105661085,-0.0024908213438706757,0.004748111422571644,-0.00018124122305251955,0.003337083727277715,0.0008283659439679708
42,0.10707749936518618,0.1710131188719214,0.11264359018555654,0.1717434513599894,0.22561775764997832,-0.015436060762800774,0.056900170966358805,0.06982946165362733,0.1877012911235499,-0.06505222099179617,0.15829389225268567,0.006981285682270453,-0.05204292429810437,-0.03943200222398265,-0.19865131115927867,0.190760756586682,-0.10702258214635067,-0.23748014367228112,0.08012317025116932,0.02523451744229674,-0.1002305486030292,-0.012378499942305204,-0.13474641518854388,-0.040859796123374384,0.04186565321142942,0.09051277177368534,0.20280086517615356,0.11965802350029654,-0.19996826752141753,0.24446587563213457,0.05785914161394771,-0.14085177511196198,0.10197052274890976,0.08186843202686629,0.06989320211369016,0.4385679828577116,-0.023573985293590838,0.29481213197719325,-0.06855849690264981,0.08208349651782966,0.11527474863626203,0.18368198480419956,-0.14055081695955995,0.07502482676921167,-0.13388175727674104,0.07330788733533836,-0.09282176946214243,0.03314202246911047,0.000969430053678038,0.025873367146769383,0.0050861188002887525,-0.00188678983489321,0.0012118638980480045,0.0007284055032389658,0.00872715973201837,0.009097794203362403,0.004286087164186297,-0.010387849301126323,0.012790080446157284,0.008266555079056395,-0.0020817230698126424,0.00409489786324474,-0.0016825614627542507,-0.0010735823266447009
43,0.11774556312073764,0.16738271310964023,-0.0040543082354626255,0.06153529821924048,0.18878699536393562,-0.011543783424755006,-0.18154527242103255,0.04100947706353003,0.13488756760569082,-0.09862868005658174,0.1625880312816878,-0.11683340990121895,-0.059996808126188406,0.1583789305779842,0.027033207912339055,0.04659996283681944,-0.2767309383964621,-0.08264572666121545,0.023672641248447205,0.23097912653316388,0.030929023277518064,-0.3751369156942113,0.1131006645757822,0.05821968915348341,-0.12214063000737442,0.4213637281100013,-0.14094041794087525,0.15680754636819874,-0.00962649515499659,-0.03833663187204854,-0.09255695626029048,-0.137004896461472,0.05006749886740178,0.16957917860838306,0.030413792780163845,-0.29740277024569606,-0.059306719309067654,-0.19011844195683295,0.04230294544028215,0.007192339632255129,-0.08099275926269407,-0.01628724187158085,0.07706187618640542,-0.2133725275263595,0.036508495285843774,-0.014522804792345453,0.02108992932314786,-0.013613711810470372,0.0011691017886609756,-0.006992838789361411,0.002315492553636193,0.0006264402339104802,-0.013910183563403702,-0.0015560627984567144,-0.007968462793773737,-0.006804774504305049,-0.014750033290296102,0.007724402015862969,-0.002337312306972844,0.0035690949826907015,0.005209416577842935,-0.003189974007505203,0.0011763117235125964,0.0009502360075660521
44,0.11376171945245725,0.18976929825570427,0.058725399528802055,-0.05486628050734409,-0.07483775049213631,0.009619562045764713,-0.32203991183656006,-0.028432238608834173,0.002441002819593691,-0.043304506099479674,0.019008768347013445,-0.12148612349047873,-0.16147583176083538,0.21354233290853852,-0.16076492830427253,0.006380250183298994,0.00860458907281266,-0.02172681110965067,0.02179406979303402,0.13539342081380162,0.0489222512773575,-0.06169530012863539,0.013574552355339647,0.08108155876859242,-0.14887588535205437,-0.0031348241610370253,0.0005943705117852915,-0.07948540527648884,0.3925053474973761,-0.4369774841026518,0.0346294276101664,0.08367349744119831,0.07458489227872026,-0.1421477226280964,0.027907437327493664,0.19023261319653045,0.07888656633776837,0.13884859238294545,-0.1201606466829357,-0.07704677130535699,0.07118249879890778,-0.10090385990921746,-0.044298535233120884,0.3994737112253011,-0.08550806858725246,0.10509135151846016,-0.007326657669865039,-0.014578297823940052,-0.02391745873119533,0.005375720040022805,0.004531448619076603,0.01777484099979476,0.006030881851645742,0.01609152217379807,0.015357191451850959,0.010814577383419843,0.006020308816235033,-0.0023858853692916293,-0.0075390910124504065,-0.007235364671217152,-0.004233047853182972,0.0032803814236547213,0.0014893869929079873,-0.0027579576638790404
45,0.11514745215542144,0.18922033160373505,0.062118219273244346,-0.09629810776042665,-0.15625391621535364,0.05205800121798685,-0.21514850662923618,0.0019467260339828473,0.036416204302248116,-0.030689313670532063,0.05553554860206772,-0.09854325326756043,-0.07963783552108333,0.014259288532806327,-0.1505981782704482,0.036914377561021484,0.2943348067353359,-0.013516591508296835,0.029840438912531055,-0.02904047439573272,-0.04343269054053098,0.0535748069069638,-0.06316946565069743,-0.03532711748220074,-0.06638556309000149,-0.011359663572233742,-0.12354620579461607,-0.018477632701217654,0.05102562207088837,-0.09281092232404606,-0.16875430943041725,0.11629721285554662,-0.14159213433727452,-0.05723999654322327,-0.1423886394844295,0.16161737419913058,-0.0027654313174610284,0.12184856135507736,0.10781448042837634,0.1389895190458264,-0.00012866368463856914,0.30713627401861815,-0.09877961315491304,-0.4702703703077451,0.25204268711753797,-0.365602925106171,-0.003598733902683074,0.074531885017577,0.026536689168662697,-0.01244767795564336,0.0012613205398016858,-0.03463665849645542,-0.013730579227002784,-0.01793176366248663,-0.009778015775204846,-0.019662885815829673,-0.0006960180576034841,0.00739869151730857,0.011163547427092274,0.00290921292009369,0.005800397136115978,0.0005642102400003485,-0.0059130024424679725,-0.00023314279186383013
46,0.11184425046096505,0.1764740830718699,0.06740100394870281,-0.12110036221617082,-0.180064087432086,0.14756764011113327,0.024851862796038248,0.05233977067105481,-0.004845425607807554,-0.11125636864202643,0.11076492133587129,-0.023692221024501033,-0.1173778313579763,-0.09677623388548649,-0.30733100180434464,0.23375355654131363,0.13267331335355417,0.04341057454685165,0.17031034130556286,-0.1224749650502765,-0.113821303016749,-0.08822989486717765,0.007626131308483636,-0.036420473045679476,0.2700124491677136,-0.22455510371456824,-0.4377804485637444,-0.14364851160831948,-0.03858091885717176,0.15873101119392868,-0.1628680554022322,-0.1766418854638495,0.1469186690522314,0.07953083211380457,-0.04380836819976449,-0.1330892045476869,-0.022883569131503287,-0.08655352789886463,-0.006321237824667577,-0.1428794159867279,-0.016800790160740944,-0.15967794981833577,0.07573442435635053,0.029982727419081763,-0.22528794648741174,0.12089510839646617,-0.016655061670691876,-0.036525787900687466,0.004166636131897328,0.0036022528028324327,-0.005304087015312653,0.017716600011610795,0.023494513892037328,-0.0003674241620436197,0.0038535529422724507,0.007348900840840444,-0.004182855204537109,-0.00458649827398779,-0.004375686178859695,1.0856196918453825e-05,0.0010060931332854656,0.00033547343148847275,-0.002485254217215266,0.0013590819182826702
47,0.1175162440871331,0.07106236505736863,-0.15827577132380188,-0.18832480629650306,-0.001787479826047048,0.2512651292164198,0.20883464383399847,0.0760166154747263,-0.18126546520632086,-0.16789238061523193,0.21180224718841348,0.06266735616507102,0.10120791288123156,-0.1989277918839993,-0.010435424296271242,0.09073337807525846,-0.132070853086705,0.23835443634005052,0.2271599335810433,0.11950670474857499,0.10633905082148218,-0.12757055811293938,-0.024044260249621148,0.11897743701639214,-0.2866997296832404,-0.023012139043785573,0.05803204125813721,-0.18259574388168404,-0.04996081662680568,-0.031672495026477204,0.3950558987541309,0.06125145203562779,0.2096095961042176,-0.15609978271383215,-0.20723914102802918,-0.03355921868179185,-0.009877569109845927,0.10331911768876509,0.083308816893,0.1550809633600888,0.04530032298555233,0.0530814006586708,-0.004196260392142895,-0.07813137437408395,0.0643899326350814,0.05762447491550027,0.03690836591598794,0.0001154460329902407,0.007416788096574561,0.00657519420980536,0.01404266042840796,0.004593194864352224,-0.001962859979904863,0.02149361873170283,-0.0014632474624535763,-0.0018193672616446388,0.006390997284710792,-0.008748619259733359,0.0009269332775478922,0.00039864601468236893,-0.0026719802934213333,0.002261110434270297,0.0035647064930717787,0.0016931026053378477
48,0.05447126937239585,0.1731918726472983,0.37519096121808887,0.07082312308916086,-0.23978351586248264,0.09618502377726583,0.0156307617827642,-0.007550536558115257,0.21415078344622754,0.04436557131936417,0.070132312988796,0.13361758827645207,0.23613600730496978,0.07230712229652157,0.2718864282419917,-0.42230015537087057,-0.02962650186419185,0.22270071047476114,0.35575733194149334,-0.07115376542753354,-0.20339881266303694,-0.06975538714063496,-0.02189952943803699,-0.0205905390558292,0.004818830669964913,0.024465768405938938,-0.1414988311028062,0.12774208897007572,0.03326073159660817,0.03877466105969675,0.10089435365314642,-0.021221012579930046,0.047401604272123185,-0.0007852088984355646,0.1747392171216155,0.1739893120252082,-0.02232307598896482,-0.032180963572739765,-0.0708013799871364,0.07982445524158266,-0.0340669549872496,-0.06602224505903828,0.07129370040716065,0.027178028246213758,0.04163192056651965,-0.03815255463230546,0.0046636708695741436,0.008607171196724042,-0.0033083388472973305,-0.002610160124957933,-0.01017168941467092,-0.001169377114580844,-0.010224355712741162,0.0077140107130460045,-0.00263697961419726,-0.003150290975189207,-0.0011892297009155617,0.000620023503815445,0.001578842807450756,5.5964612448361484e-05,-0.0010977485352961815,0.0004621691359541491,-0.001353463612522962,0.002146706322463221
49,0.12404786147652568,0.09337500905706911,-0.04849862688442534,0.12753704331958507,0.15112910645502484,-0.05419948576939391,0.20631797274162517,-0.03184595288722218,-0.22308513628644805,0.11632245709952929,-0.2836627486643562,-0.27213714415043544,-0.22069745450523007,-0.18175321444968387,0.07511864772640969,-0.28461413743238495,0.061214788989198944,0.08179400476582988,-0.004526429534452049,0.19933780807080498,0.19424210586536822,-0.12463990358707283,-0.1913551941405023,0.09387998599726012,-0.08928827458397708,-0.11383394147810291,-0.35012237316039896,0.19467576478245985,-0.07395873019624669,0.01745040246649508,0.0019109562069481098,-0.03328863164006671,0.009783864103560858,0.19001023362479016,-0.16798474960704743,0.19898869831824254,0.14836680812614247,-0.04768568340699462,-0.15146243768011414,-0.02591717355792314,0.01014284328969102,0.0913165277068301,-0.011761174566259844,0.043659259116301204,-0.024662195326580663,0.00228651058083283,-0.027187468382741296,0.0012229559279131,0.004934790381352139,0.0033607045638061883,-0.019034961803575418,-0.007197862753763495,-0.00868885987032808,-0.005624722617273786,0.006180871359787423,0.010909445285389008,0.0050331092797972835,-0.00010131543563840495,0.0008175912050833734,-6.372208512028799e-05,0.0021783527306670873,-0.0039925985019391985,-0.0006574026113945752,0.0004971491669859274
50,0.11741736493731024,0.13786373357448778,0.016824589463348732,0.14909192197675933,0.2319416210711791,-0.16511596836349893,0.10394993196137597,0.0062012184901385084,-0.07631653885854482,-0.12964396673631168,0.15654262385905493,-0.16410228264103258,-0.1240042449813146,-0.03416376001285262,0.08823393735582293,-0.04640507997400799,0.043589381467704025,-0.2697058989612982,0.28793395592479193,-0.028745895173020435,-0.19952208936946347,0.04081851436989287,0.06755161744431844,0.027969620780778047,-0.003884233538411219,-0.11662055728292611,0.041350886727613,0.0392554724908758,-0.07281818777195358,0.11292542733994985,-0.07624702764980747,0.3789108778205376,-0.1255902214718599,-0.5007476820362555,-0.015723585173829338,-0.1355807255435649,0.13680644008655238,-0.17341641968105526,-0.046711413245470096,-0.07001194726813961,-0.05080553010694635,-0.031350052835394326,0.11535866854510124,0.047613124842626295,0.025644774765694003,0.003869983505541949,0.019992671473666887,-0.014700114238263479,-0.0017135819706079747,-0.021359924052471224,-0.004221406720114423,0.02130710092180471,0.0008921588432815042,-8.921775090836581e-05,-0.011951957593182502,0.005239434505481533,-0.009313271953084595,0.0012506837682018579,0.002662588787816396,-0.007863051345889514,-0.0030437720596872553,-0.0028188763733806074,-0.0011183706670527434,0.003257948186691617
51,0.11514876363159199,0.10254635959327138,-0.13145198523205123,-0.010038904128133018,0.14547288118992296,-0.2899629488796415,-0.10628959174378053,-0.020433225417566654,-0.1382925167116904,-0.20608526347405706,0.3919943184304958,-0.2306098908106134,0.031404092085104134,0.07996485392369831,0.2849592095375613,-0.14252606935842013,-0.27739496135262004,0.1471039803087154,-0.11555250431981957,-0.24453951526959797,-0.044126134364947465,0.18022792517780187,-0.01569012600873516,-0.02603690797467838,0.2506804004049424,-0.21604856831234762,-0.011131826232772729,-0.11714849404187413,0.1139414231930026,-0.052194145636121556,0.019777900715275652,-0.1111749949874625,0.05713896483036955,0.22392856404865555,-0.14365881467681144,0.058490991706021345,-0.013450436972656299,0.10369402201521424,0.048250251722795456,-0.026224662691532466,-0.004098220842006672,-0.01584058131697813,-0.07515908156250548,-0.03352540036767894,0.043026517755283836,-0.06484062924108908,0.021148005118442337,-0.010622080772246967,0.003200102100446564,-0.0009295264850703127,-0.009466162153828638,-0.013824479551062294,0.006564542478736973,-0.004276883602421389,0.0011012866912720881,-0.012089675346195136,0.00685026184787824,0.000601824783790561,0.0004043398523249364,-0.0009025655519252079,0.0005247826124059908,-0.00034458476171714963,-0.0038172511824844657,0.0017541027727725061
52,0.11208616074588125,0.1790350784310928,0.029047852058694573,-0.07952342782616831,-0.14343321020462046,-0.2011865338190789,-0.20795884137423792,-0.03382406855014298,0.0738773573868054,-0.03930928726914044,0.21321132591504718,-0.14156447959540186,0.036835637868006865,-0.037363655398127894,-0.09835069635074677,-0.11398852767775931,0.16419084475505508,0.1372033733633796,-0.2292586420849765,0.02696825938575939,0.24095204890975053,0.19375288953922776,-0.09368505167089555,-0.08971447042073935,-0.2850581452528953,0.0021596891527364964,-0.0328692380666047,-0.12243016332225336,-0.32893396079019016,0.176902245234365,0.1537773275224646,0.013019906554389657,-0.20427108142600828,0.0018889430888226824,0.2629970668974649,-0.13629714521670974,-0.058094556196903555,-0.1888818879755828,-0.061242161167600846,0.15749760821958078,0.01150802007836528,0.10060054063539511,0.04038493744876043,0.15023201784270862,-0.1265993983026223,0.14207585348797314,-0.05897383561615363,0.017112090382943545,0.000907199646104577,0.0028197335265910204,0.02229632881217497,0.012209409076753518,-0.00408168393573663,-0.004471351547714109,-0.0024286774032887225,0.016788449293988435,0.0026525694271767875,-0.005992851502264057,-0.009124246900157187,-0.0041730892798834684,-0.00033521655354271096,0.002260916959290593,0.008262814566223797,0.0016237570496802078
53,0.12281767751956134,0.11581432856277672,-0.16989869432510027,-0.16407117873917468,-0.07858306779126094,-0.14890625533409613,-0.06889345968484983,0.006864125076002644,0.12093126842340902,0.07369845317518227,-0.003115578200158209,-0.11662241877286295,-0.028029989037653677,-0.13644727794237643,-0.04098656765535783,-0.14486032223867248,0.2361180510504928,0.11560357851196541,-0.13825653474515648,-0.05703656411072758,0.11724798206799286,-0.014791726933527392,0.16041754884583403,0.024366529369464276,0.02615134204312893,0.11653419723645092,0.2512923931581907,0.33068535636194396,-0.00391635155903175,0.1481403166493131,0.06152654241588072,-0.028407349005255503,0.32046909940727425,-0.18916640080694058,-0.04934469251232039,0.12816908799540977,-0.01914026148714998,0.12612199559596685,0.05488792071202338,-0.24218019857063133,-0.06626073249405581,-0.35920920629171665,0.15321192009950266,-0.22230236831659833,-0.12510258563890755,-0.049045054873457256,0.028734458081497022,-0.025972190592475672,0.007184174592137799,0.005239281655653058,-0.007237999718093413,0.0015996523381069504,0.015726297834054687,0.0013118128713485028,0.007469924496385116,0.000743597382883418,0.00476388951743284,-0.007234030699081219,-0.0012550046649119906,-0.002701822469357823,0.005024389994538109,-0.0044049713578079505,-0.0038447921961722725,-0.003115433901823103
54,0.124958532469138,0.08841925663847935,-0.1952233749485511,-0.1851328176391831,-0.0822244602448252,4.9190936415663396e-05,0.15085046856384146,0.06669612515233907,0.12847020985213187,-0.012857162788176967,-0.00158308797193684,-0.0670743926798493,-0.10017186898251645,-0.018588104493154064,0.017296671227720283,0.0573597418673215,0.18632110820422745,0.1324602290539535,0.02431099033793941,-0.1274073582429452,-0.0690826116951496,-0.11366835923823691,0.16506421772076924,0.03237962575703146,0.2038946660735299,-0.0007275654708892715,0.19487373113772744,0.36302613427991215,0.11459371839363125,0.013895030035290488,-0.0957004559941267,0.0029334771930142195,0.023513688348852924,0.11136569825736198,-0.05443294284390947,-0.17895851409199565,0.022380291913570077,-0.10996451633021713,-0.03750019143997954,0.43090776449294543,0.0207375879395302,0.21880525828019745,-0.090877186887477,0.36899474918601605,0.19875574005407887,0.050949299926755995,-0.0025542090998298267,0.007363274053285046,-0.05095310781287099,0.0034374661491038266,-0.005831283589383007,0.021832688808308548,0.005543883186284432,0.005412033314251427,-0.005360145291868679,-0.015234185695919777,-0.005517529560937234,-0.002885933880942798,0.010482558040525787,0.00540113509000778,-0.005138093233415096,0.0007552784021791943,0.001783354355428729,0.004352569226763192
55,0.12437764319950835,0.05649365906072845,-0.1807528477063231,-0.17066608137060285,-0.05499452040433831,0.14420605966739114,0.2928588481630896,0.06454532722320429,0.06050583327852215,-0.14505414479324158,0.10216025664012726,-0.020712517377777125,-0.046611661844777975,0.038025637027173216,0.1488960864023058,0.1504751670322396,-0.005056961593061586,0.22351441232610253,0.09793871732584271,0.12014207433768073,0.06754206214972906,-0.0826799263059661,-0.09565863676049671,0.02719946963921756,-0.036645071053958,-0.06821048011685829,0.24425201112558742,0.01549780557104942,-0.005420481390944399,-0.11503132288543153,-0.26387561476223764,0.01784707518683243,-0.41374518098388224,0.12766406501031485,0.32749402353220824,0.1773380967907861,0.006207074535231602,-0.052964144889488335,-0.08770843962413678,-0.34657026381171774,-0.05277887496968367,-0.05237180457190944,-0.019922125665823187,-0.07780215875579616,-0.05977497655477547,-0.03678358639109354,-0.028890213913460458,0.0019001856326729197,0.02854079937003859,-0.003901409779688808,0.008342930050053599,-0.02982501667377166,-0.015579372645773373,-0.013103771487596224,-0.008324606006805096,0.018192951034502608,0.0010163280533902336,0.00834972030641816,-0.0012568334683108195,0.000139904392732218,-0.0024557720196493465,-0.002844498852546659,-0.007933156061532333,-0.007594030355898659
56,0.07816949985389664,0.16348876812423466,0.29706757193813843,0.039800622371027945,-0.24865432718744343,0.003634714378627837,0.0144675011796456,0.01848571757450235,0.017205453511645315,0.15812833299554555,-0.03450321035651971,-0.2949562200335669,0.23770628862143017,-0.3857785198311524,0.45596106325466706,0.4325911877082394,-0.01250448705169054,-0.19062233317801827,-0.14901769773525053,0.06481590573281801,0.0729593141003203,-0.002419224811456156,0.02758823260152693,0.014946995759483859,0.029380463670022665,0.04615103054724895,0.04224609170997896,-0.05626270037551055,0.05028300881944224,-0.08474710654898543,-0.03634317145761044,0.013111743453696253,0.06046573159931263,-0.0023226493251049286,-0.050707929417574765,-0.02176024905678252,0.05651064223691349,-0.004051829231301124,-0.01245560375630378,-0.0063934732182534745,0.0031424607564732587,0.006842557775757603,-0.007628094354743792,0.03405126029676922,-0.021642612133386464,0.021495582261122373,-0.0005714008111307248,-0.012315008321228641,-0.0010675541509755915,-0.0038589828134636406,-0.0009196534959347857,-0.01104421032168619,0.0037126427674830445,0.0014012840968509188,-0.003387747117232831,0.0027012440207474786,0.005058260323299868,-0.0013336513183725973,-0.0020699212001154543,0.0003765777721377872,-0.003053400428769115,0.0007973715096740719,0.0013926945765280196,-0.005711228257037709
57,0.09857176527313326,0.1549876198659097,0.21798349056323812,0.09371930963660102,-0.18790711748053712,-0.03583648774303723,0.13024325726072622,-0.04518097686157864,-0.2133695149623932,0.06489983979429957,-0.2985871335497338,-0.17143969326112152,-0.27830803755754757,0.031996502109543114,-0.23281345156320546,0.08950228824770294,-0.4503578186017543,0.32451300858789744,-0.013189712076433813,-0.2782514656122445,-0.051217157584985976,0.12677984857670005,-0.07069661601784714,-0.09057642249784754,0.042398850000917504,0.22666281552460418,0.1637292157494237,0.01266067615806974,-0.03821657112722843,-0.010164951249128501,0.011574608690287088,0.06718619759236824,0.003766824411985347,-0.12217279611546351,0.08482935813214666,-0.07657069427958889,-0.04170400496254402,-0.032714883845329945,0.055618462502675645,-0.0010977341512139471,-0.011831450614313468,0.022633759123274262,-0.0059711129315705574,-0.06684443332529504,0.027619898830063355,-0.015472735083942243,0.02079461447269154,0.025141777753387655,-0.007714316294649193,-0.0015592204473136584,0.004822832606324788,-0.002005680940078733,-0.00910283426564612,0.002233379053417639,-0.0028796888495375983,-0.0018840786848418056,0.00749147480999357,0.00249942643423931,0.002347501473276614,0.0013780401918263019,0.0003307810365704711,0.004536460443469725,0.0009906276961519009,0.0010401740054723674
58,0.11366108049312405,0.14040634721207423,0.0899878526745795,0.09495118498130097,0.00567689949697553,-0.2524709262747351,0.1927522690831099,-0.08674305159123227,-0.32453585156930487,-0.13685434003522506,-0.150076726669699,0.14493878278391198,-0.08615183076638164,0.1380512481707117,0.14678939636477473,0.027826002178274117,0.3169831759841838,-0.05762962134384958,0.1686666643086947,-0.03315691356885157,-0.018987827781210127,0.1085607708921365,0.3987260348188664,0.09583295183903509,-0.26871443269818973,0.12576297838474945,0.07889718490694475,-0.23575055253197758,0.03027255026689886,0.04424210799266089,-0.13847281990298055,-0.2324665783566312,0.11906646149575223,0.16615690636314343,0.10134843669273894,0.0012170879492395675,-0.12723876504422593,0.08143612612445739,0.02532324340611558,0.053984394077859224,0.02274339529510963,-0.022520249445928266,-0.06289388686018621,-0.026361748691387674,-0.01704721190615039,0.0200262783893648,-0.01837184806971411,-0.0012526377372378337,-0.0020912441283121863,0.012495256570604046,0.00970272477788059,0.01725542984368043,-0.002640340763927135,0.0018553389486457086,-0.0013639901601517623,-0.0040281444825245455,0.002670879370734777,-0.0048989387588072725,-0.009041723983204596,0.0024672598352665776,0.0007609905743267142,0.00062612300513884,1.5548145409778613e-05,-0.00016095250069429745
59,0.1065893003466848,0.1464353302043152,0.08860565359897225,-0.0016420562623268337,-0.0686418438840032,-0.3591285171745754,0.051489557686894,-0.11336722851493705,-0.2392499285376351,-0.17579568143074772,-0.01688182307364084,0.44957835577596006,0.1228435292414035,0.1774427523990268,0.02140518230368,0.28118608706928055,0.08687504642937337,0.06219718388416289,-0.1951007311447894,0.10862596880833214,0.029188326557375244,-0.20869124817351317,-0.15404690705905208,-0.10728884241998907,0.20675168521183074,0.011042979174514439,-0.13716936512365452,0.2534451348497095,-0.013094166878350369,-0.03266806519878022,0.27463280097284154,0.11426568182920611,-0.0858214682921857,-0.0625849869316912,-0.03212349043554707,0.05565434514880917,0.07879441244887052,-0.04089454627659424,-0.00018731414550615666,-0.08079844387014068,-0.008314525232276548,0.009763715543085073,0.027269286468100264,-0.0008603154382826016,0.06562860526593718,-0.021273471532828957,0.025604563468172463,-0.011591925282487134,0.008668778363857266,-0.006305641314418048,-0.007480184021228797,-0.013812482724044714,-0.0017477843632656698,-0.0005909554994047439,-6.817379667550111e-05,0.005378271381143135,-0.0026140908220292913,0.013162097605343578,0.003324829426221948,-0.00027728330176274296,-0.006101064406104889,-0.005342306692339038,-0.0004580156752606035,-0.003286732165606155
60,0.11295199810370399,0.08364233949917144,-0.1725070726944434,-0.12397228038951154,-0.038922572557101055,-0.38599695660392574,-0.07370416862946086,-0.08558056593942527,0.03564968472264696,0.1503280006189326,-0.10015031176725932,0.2820226903043986,0.21511262762988,-0.2415931364321598,-0.08066264368337372,-0.08898634409079781,-0.23530022755113236,0.017089869367161593,0.16293431093049773,0.09403137360925844,-0.01805830039332751,-0.0564417805543516,-0.2504520597696966,0.05509113913360185,-0.060203243395482234,-0.05017353009571834,0.0840044275227702,-0.09121336112990297,0.07242543143151445,-0.06546235848800852,-0.45884421881162807,-0.012276242600332408,0.0474914449105675,-0.08217175714901409,-0.079192122247598,-0.049501917630805976,-0.005777482891016719,0.012572725363672287,0.008251861588219975,0.2144735306239296,0.018494372797838193,0.019517696098281197,0.03584939586737203,-0.04151781418519134,-0.24541399259925692,0.016381580954473972,-0.075243313427417,0.04874795908971491,0.0008068248291184521,0.010145808889789332,0.021414099054441027,0.009003486070518707,0.010560071426876413,-0.0004932309166618687,0.007382916379028423,0.008082232225092335,0.0009720926116384698,-0.011928416545220435,0.0005212434689183601,-0.0011960106029831052,0.004213329551288919,0.0007008313674481959,-0.0002764098065386328,-0.00038771784840496704
61,0.12201035826429404,0.09141453058727946,-0.1671406308800075,-0.14778808388856887,-0.10082548483792672,-0.2551602296191065,0.006795003695761024,-0.0006622894418529593,0.187787014988187,0.19535361694226414,-0.0992064723238141,0.04250564151694649,0.04812605833193635,-0.1796285840477778,-0.17036679650037675,-0.033241499763903594,-0.16464369549059774,-0.16758953999486348,0.12463330578599262,0.027655048056590484,-0.07760054016780357,0.010391002288125725,0.12635591483534858,0.030636451815932525,-0.04254774053271678,-0.01159557929895105,-0.09774449714283664,-0.16091522117602827,-0.09050656785979763,0.06344489671708133,0.15656328011699655,-0.06222253059430207,-0.03922749305801002,0.0982096709037135,0.08337007992350791,0.002413543305063784,0.013225869617368474,0.028692902708221543,-0.030318139533951145,-0.3438812805850376,-0.018534806143463006,-0.00397984737837076,-0.15220658141704974,0.1568853616480272,0.5502103302165405,-0.03489709974071629,0.17530143749356977,-0.057148337921812634,-0.01269153359437955,-0.020236344045561794,-0.046349559721202103,-0.02575511871247752,-0.01976172659178474,-0.0037873183114344317,-0.020706939390540913,-0.011685770181791552,-0.01226240592864486,0.015255964505544506,0.009684156635850424,0.008176053520783821,-0.0042268013537845525,-0.00403274323914915,-0.002639468250582644,0.004353096430037291
62,0.12542810768921744,0.05173661172009819,-0.1897533135219657,-0.15866802291754434,-0.09116140171018458,-0.10961231281215172,0.20848367441164922,0.06766715394051614,0.22946886254599572,0.16348456210470147,-0.12333362576522952,-0.007666676394207428,-0.07445937088923557,0.1076329303011938,0.030372843633703253,-0.0005554478892914581,-0.11219079099769662,-0.23077697145972245,0.027988625008826255,-0.10616098926915207,-0.11111868968286054,0.09973575263291752,0.24201429873562622,0.0275108865686107,0.030663346954245756,0.026122416153670724,-0.157579699704186,-0.041396835351704214,0.11380585010750097,-0.14385758096710155,0.3998673822951798,0.12977684920756333,-0.20742554695870574,0.13167744576379967,-0.028695997053570392,0.04912999752532226,0.04619549096999029,-0.04480398250409777,0.03271624924240564,0.10248237331049326,0.037774521257991134,0.08687878623059483,0.08481157795482913,-0.20880448711712732,-0.4196242355493209,0.0096189451318541,-0.14961539016646114,0.02737637699440907,0.028114800880621918,0.013641996055774694,0.03491307106475249,0.0032429015082106327,0.003330459390084306,0.0056413189310189765,0.0059451212882955795,0.010547846868039168,0.014512862841973905,-0.0029585805093023942,-0.01189924001952549,-0.004379489408923895,0.0036726304071032154,0.0068712172642423075,0.005725353496110322,0.0004193396379811032
63,0.126334529459511,0.04955741902653971,-0.0848112585367501,-0.12423480334472906,-0.12137434015320714,0.041219199130407204,0.33406584732357564,0.048357417357375275,0.2599126912973757,-0.002308841780493893,-0.05137639464508795,0.004953431760674922,-0.12187333999729356,0.4605571183771712,0.20946997055258193,0.02670759465425212,-0.045706034446041884,-0.18457153880940172,-0.19687305639218022,0.028985501722312686,0.07468132450732907,0.1403022790692794,-0.3270092809922351,-0.06807196442581323,-0.11068289496198801,-0.01943969352296188,-0.13308869072603874,-0.11535158068133813,-0.12249656283229608,0.026925318255172505,-0.16112491963168088,-0.04724558177974913,0.29154083708899237,-0.18209973779560726,-0.06066274717702386,-0.004843504611078157,-0.01659134603565182,0.027035343998681027,0.028269838652402207,0.11523872815221245,-0.015048107717868547,-0.1364627326670129,0.02204544509868714,0.03130975450722538,0.14091930987458232,-0.004798979178530366,0.08924421107163505,0.016949763177076242,0.014549327163185181,-0.011331474621370935,-0.014279059666383459,-0.011350192475248377,0.009279429575531739,0.010612027284483475,0.015858597157985516,-0.006344451353322955,-0.0035770253887445203,0.007013712847200593,-0.00284558457040876,0.001165871030306749,0.0036766241058088754,0.0006699499307852019,0.002525874744958287,0.0012064010837811723
