,0,1,2,3,4,5,6,7,8,9,10,11,12,13,14,15,16,17,18,19,20,21,22,23,24,25,26,27,28,29,30,31,32,33,34,35,36,37,38,39,40,41,42,43,44,45,46,47,48,49,50,51,52,53,54,55,56,57,58,59,60,61,62,63
0,0.12885960319551126,-0.08832762250069788,0.0940537247069863,0.12233667775040218,-0.1282799235145066,-0.10662140028198532,-0.12601863681462425,0.14662476808225738,0.2326885093253556,0.14511839384247588,0.0761485590565725,0.1760487516494752,0.2999049346433227,-0.1623499590266025,-0.2663201000513923,-0.20381137082730522,0.2930975536330641,-0.08365966651184892,0.06099491525345822,0.07463101586627335,0.06810994914235702,0.3945681465569918,0.11289131193633331,-0.016682977139564424,0.18682354270484122,0.04674567903048314,0.10523597295018652,0.24603981005221806,-0.016936374251439023,0.07318612459501264,0.06764833217231501,-0.16180579954331764,0.1326450905711024,-0.020939491924414896,0.08509600533456292,0.03196489869844908,0.08742251612562896,0.09379460151445568,0.009760508056614365,0.07441486529090534,0.11511000942873492,0.041539938548885234,0.04089734682394085,-0.08794762981147618,0.12541537716250978,0.030860586542268708,-0.04393454368934011,-0.03487376807576292,0.021006485561291647,0.0953907945125153,0.07739037488855176,-0.008733159671196937,-0.041884666432177683,-0.06839061440355765,-0.03455585206217012,0.07773272970865087,0.038618005632397236,0.004036797426457726,0.0024105586166879417,0.004378421750551642,0.019993352606679476,0.0017902576421601594,-0.013814655367115194,0.03457984240278418
1,0.13208423018901427,-0.09943356064905229,0.05427829800246835,0.1062824910466473,-0.10802462900253913,-0.05529416443071684,-0.06284034114755686,0.12031853970709597,0.24910515181973275,0.011818016617618419,0.0027119391661631206,0.18279828321194216,0.2628219837952032,-0.1977546344732798,-0.06954890564484714,0.035975174056969234,0.18064315435039807,-0.028757472196740304,0.0075223761273733245,0.05211554962045173,0.03553036865544195,-0.15020870255075847,0.037655984001126575,0.010944467084992858,-0.004016780436686369,-0.04961470491103016,-0.03058813574723787,-0.09243470189805844,-0.005910636287589067,-0.19239635233059432,-0.03948052244370091,0.17347363829529616,-0.13387534915098287,0.05993310212081522,-0.02398794550117056,-0.00709462551879869,-0.0711595000390022,-0.20540361837559482,-0.019194138464418205,-0.12103570326370011,-0.16955026517335206,-0.1472785539893347,-0.14235273051934197,0.1500377256485989,-0.30252805564318597,-0.1897963773347985,0.11746265145760346,0.03971139039231823,-0.01747110806174281,-0.2053575174362703,-0.11385621880112876,0.018271359148200335,0.12055579044377382,0.24274296508548554,0.12974631983066748,-0.2332756929704541,-0.16437541852540383,-0.035196906922105406,0.01144225399534763,-0.008211297311149474,-0.03752041662122323,-0.06043492781011482,0.046268305760859656,-0.12806376779096226
2,0.13248761060338088,-0.10770830408353038,-0.0015838117144263142,0.05309085591320961,-0.0674871359284861,0.003976046461270866,-0.03457692610050113,0.14594642080922163,0.23368670452859902,-0.14154596133011071,-0.0549093871379604,0.03432302529781468,0.1606266557668073,-0.2702121388646806,0.02981542093150974,0.1885338687333909,-0.01903446571146509,0.04068224951418835,-0.08188746272594337,0.07757621986524016,0.0763271665698081,-0.41968759713327,-0.09230393856062433,-0.012126735383419435,-0.16828145096720412,-0.031051310123346255,0.004988762713188707,-0.04906021658325575,-0.06671735686418327,-0.03139950632301159,0.06143634898138742,0.17425305029668473,-0.1268819971865785,-0.009496633544113594,-0.02722476983764298,-0.08203454924138481,0.003591921830198179,0.17767175067624374,0.09279364727319825,0.11670170484995188,-0.03874384211558674,0.07015435080487528,-0.04979398470072837,-0.007750633530512429,0.09147961102297594,0.0049710868862508795,-0.023153573890943163,0.09082701745405894,-0.12010242789808848,0.22231554982267865,0.14937561362304025,-0.016165741347685725,-0.05505245331240079,-0.25061686660510357,-0.25993052611890244,0.19070717397794978,0.14055401898057954,0.14207323940994385,-0.01150533041878028,0.08000138527908472,0.1161395323000073,0.040141189667744326,-0.09000630579436775,0.14397390690905026
3,0.1321692961812491,-0.110154819202394,-0.04046707919390169,-0.02595079613317508,0.003166711974843306,0.028638371358402415,-0.03753898220455848,0.1758648110320734,0.20310401612431894,-0.2426502152589246,-0.05698650036699905,-0.15039873708744644,0.03024346769116056,-0.1245302135030427,-0.11268033275880035,0.2633424369884458,-0.17404955717954274,0.05463626333902992,-0.06190321866017123,-0.05898372785813007,0.01939013987699858,-0.11864446935158339,-0.052656437615171435,0.10365670004540532,-0.08455224249264728,0.058115717386213864,-0.039864402414867835,0.14433088859034782,0.034551927441404805,0.16162808432764825,0.04075096020467921,-0.14607907440254542,0.05609515848802343,0.05051005806616622,0.05238589681135233,0.03370143879761956,0.015801886672805923,0.1726011434200415,-0.02311841739514461,0.08365286110927783,0.16466629093036406,0.08509571227090894,0.29800193390634605,-0.03431151291360028,-0.09544443737465752,0.24613283715624948,-0.11346411434579289,-0.1366112887863046,0.023814766707239438,-0.012213266626155656,-0.08865679213885067,-0.026494274345455836,0.041615078183742577,0.1518106231742546,0.3201715431660712,-0.12062639905704545,-0.016735347196342,-0.16734071153133281,-0.03136801063561367,-0.1581720043981794,-0.24278406894128993,0.0784152373867734,0.068205451507592,-0.10374737437832912
4,0.1309399010468842,-0.11090637805398501,-0.06988412153003731,-0.0765831982622669,0.06808658030764553,0.012198815367370996,-0.05086006470582907,0.14755509976058484,0.1692249915531655,-0.2483033200035075,-0.04653354049479797,-0.21973440740482963,-0.03019644625625996,0.0414463852984109,-0.17912555374951744,0.1856870266167575,-0.19836148454587305,0.070561854699529,0.05735084053594611,-0.18437649660477365,-0.12140983751340198,0.20053330059865687,0.024387803235744722,0.07336042087553893,0.07238463810262831,0.06155827463539279,-0.015757129663770714,0.051141975891087446,0.02667802140127273,0.05446751396803328,-0.07106246077411565,-0.09690762684913513,0.1664000135140948,0.11235381394834135,0.021082080556803773,0.01637066627617214,-0.09540281021807256,-0.08838483039192627,-0.1291307477660669,-0.03943487348401417,-0.08498115113402979,-0.09409059344189202,-0.031027276694077552,-0.07751159817756886,-0.14491678782023615,-0.1377474731140781,0.14615866795480176,-0.007356026166949491,0.1637603497183053,-0.22807423095070078,-0.014994039524969582,0.06683565438816641,0.03954513303191369,-0.05154426540642704,-0.25310623920807224,0.11056434158661119,-0.05897487722399776,-0.009256184574623563,0.0555970009858746,0.22706922947834748,0.3390463290127677,-0.11122938047150384,-0.059132125418621784,0.18573382530353993
5,0.1329583654773949,-0.10370671514526059,-0.06352041870054037,-0.09731844175250248,0.1057777275607899,-0.03206148101132586,-0.0591701798116179,0.03977150212534589,0.19506790852683153,-0.16776770807619512,-0.001682671529955243,-0.1554551515910209,-0.07549098368645057,0.007266107062446639,-0.05314158673347519,-0.02021693384564833,-0.09980352635753906,0.05031886158006221,0.18975891104826642,-0.13342747663515797,-0.15437757424753853,0.21602277175681084,0.09869969011529703,-0.1675932267512863,0.013459997032543788,-0.0031074212666187713,-0.00887086701670333,-0.08795188099135126,0.03498111203248547,-0.018219142742458172,-0.05691407092034001,0.07981730782492598,0.03232374656992098,0.16971327389093765,-0.019596024644872992,-0.016941697501212175,0.0076250995707071376,-0.12510232134082522,0.058174946941179764,-0.07258442441750132,-0.08666519999961367,-0.01716066463550616,-0.28601289952041864,0.10092326582775271,0.1769014594085925,-0.07172929711374323,-0.07405492402761604,0.07134404900112212,-0.05907420304134974,0.15198096051621784,0.040376288360602336,-0.020219230998180425,-0.053145329626137494,-0.13911377161868577,-0.0296855698902478,-0.11204977997528744,0.11580530686111921,0.3320369059063319,-0.06823850106435067,-0.22073518552638421,-0.40780024484330224,0.058655698782676506,0.10231130019671875,-0.15630496758961065
6,0.13496224687841507,-0.08531767533052415,-0.043468012192891876,-0.11545100119506524,0.1185437987129731,-0.0683412753692701,-0.04998764929294702,-0.1136716684382488,0.22537578308806328,-0.0949162995357153,0.019140104756322086,-0.08036647724402848,-0.12185517201005719,-0.024484055610214037,0.09872352650779395,-0.19318321425111265,0.05352506751204712,0.01994367637341366,0.2114809532827262,-0.015393600226436033,-0.06408989107707483,-0.003975540989298421,0.06404193558034643,-0.10530469932820799,-0.06877992687562817,-0.049807160520723356,-0.01596319952027863,-0.022975618436757092,0.11747008081792164,0.04165581083932061,0.01944044148297744,0.04803472882245135,-0.05551305674977178,-6.883296953085795e-05,-0.019753105879615693,-0.05563363346356459,0.13337702018906544,-0.0296382203195718,0.08735614132860006,-0.05017780119011763,-0.034619963621003655,-0.0185605006324771,-0.12587735410353032,0.19593998798308304,0.11094121188087352,0.06278577756873255,-0.053158541880393255,-0.002518663492459501,-0.09205174683937309,0.17127524625726787,-0.012302543870385707,-0.008801199558694545,-0.1711151063269882,0.2096459121658349,0.389326191764937,0.1752640151814266,-0.003872933583168793,-0.27654051805329666,-0.14396581212041537,0.039242229392508036,0.4289856542618175,0.05891434147805115,-0.05209685892914607,0.09732771828747316
7,0.13527905120687386,-0.06759590541899932,-0.02574413900379401,-0.12457231313937978,0.10586400184190514,-0.09773383513737532,-0.037561517152659346,-0.21462970097411993,0.237828578552903,-0.0348126772161495,0.03501226046072397,-0.019372797169965886,-0.1481955743345784,-0.03063398319490024,0.19581011756975972,-0.25661967468548263,0.09986439369723124,0.012405658922518818,0.15961380031514505,0.06165373155857007,0.04528570893532123,-0.12014491701655677,-0.05925835222125586,0.12963530182953584,-0.08152681888312893,-0.03046475211445604,0.02064805260526199,0.1307410043215913,0.2228816956518884,0.1318016249763769,0.07257657792698163,-0.06929980880606872,-0.049624878973602043,-0.1782231300811942,4.549627887921737e-06,-0.19241882870805133,0.22942160611913687,-0.04352399216340842,-0.016836265771107826,-0.08536135430358517,0.08575545885612224,-0.04596285282023884,0.2554065274820755,-0.04339566929346436,-0.16121894508910853,-0.11531728643527242,0.09534289248817665,0.08704330211654207,-0.01543301854872391,-0.1932044609332163,-0.038280917721055525,0.004462601732139233,-0.03261502043929438,-0.07979959247601878,-0.2778509586688427,0.15971025307273118,-0.1870152113291047,0.03634854571709112,0.10475147607317058,-0.07292396287953888,-0.23895275655838036,-0.015259759665173952,0.01302733268028846,-0.0515313542681099
8,0.12712659908093124,-0.10143163460868185,0.060398609825659505,0.179896652208709,-0.19506051747087472,-0.03350045059010043,-0.04150622114546765,-0.04148776838759843,0.10333733262348654,0.09939889828627146,-0.08673718209975254,0.3075022073175849,-0.031418892191167364,0.4186345620885094,0.05686648541419921,0.12714872323785162,0.009140024993454732,0.15297140404805915,0.17301366787566297,-0.18234586671691905,-0.24609222765242972,0.08357456298095359,-0.025816003408828163,0.37830670608477135,0.03266460213297472,-0.022586161252999663,-0.19245332778966143,-0.21146418006609002,0.07611030814982125,0.12288264737189752,0.03284210359003681,0.07317099309864163,-0.03170337641252244,-0.028135592128028623,-0.0011075806157691964,-0.12274887118266875,0.05824333452941057,0.2648753789871439,0.023830691717907197,0.1861521929437266,-0.0022533849620394314,0.06508132310558372,-0.08226467535690607,-0.0018290691395218273,-0.001089117022092051,0.013593741710425294,-0.038989060377793844,0.022099401139700447,-0.0790154424728728,0.03804820142684874,-0.002259629555129747,-0.005480720931557048,0.09470188386307055,0.032898481092646266,-0.02208450876897821,-0.04632876957687713,-0.050728370984857274,0.019607289503913904,-0.011171210744103004,-0.025317086017305944,0.04189485047384135,-0.042865844801675726,0.006734488878757796,-0.03704988874483118
9,0.13157145528901687,-0.10912535569926116,0.02678626821612192,0.13797651040907943,-0.15686550673005026,0.0033923014395098594,-0.0110315551413519,0.030734384072300308,0.10694605990345117,-0.010881305472846325,-0.064992816118071,0.2544161006535659,0.000516585442303763,0.12713834287271727,0.1814444404794466,0.05547465205374921,0.03344745140513161,-0.014953713049331727,-0.02344997064475842,-0.0057025001172597845,-0.043031821545547314,-0.05518042445544885,0.04608524599640843,-0.1321129680593842,0.05817124533993226,-0.07946424015809736,-0.05898251684182931,-0.28174857443954254,0.059714819323567515,0.020661386862571296,-0.11481893962895726,-0.04106786396661469,0.06322584425734964,0.03803415044635548,-0.033525912091876164,0.11556148445934225,-0.13901406340896613,-0.31979268677611683,-0.042014747241278294,-0.2767752959148445,0.07710326520584394,-0.025791028842884825,0.2633478270622299,-0.11716328072786625,0.09945394781349184,0.10011245782384985,-0.033137951312499164,-0.06785583491272511,0.16373195994584133,-0.15211570131094165,-0.020057409086365316,-0.0182607839896524,-0.2641231958811914,-0.2024338341520523,0.06025627201512989,0.08794246936358835,0.23819119939185374,-0.11331511871513189,0.025382131079921433,0.03247892717821333,-0.06763889278770817,0.23918235384300734,0.02358517917727043,0.11513334215865619
10,0.1321302639893324,-0.11768068559164592,-0.02532406461900276,0.0637022817490214,-0.08110305400668927,0.05834419069085639,0.005103753133558264,0.1447275542302641,0.035625758045669975,-0.12641018834535098,-0.04865753642718173,0.10306758923675358,-0.0847152300554268,0.055632666306939596,0.24722763475205162,0.027313812403892187,-0.07266841309571008,-0.06395079478267601,-0.29873697853075465,0.11469697122784484,0.14238226382993238,0.025483647710841162,-0.06441836962899603,0.05802378395360165,0.03958973167511065,0.0460069053751279,0.022859535181526065,0.022478638651719896,0.11728179303800482,0.09324243410642366,-0.007745355553424073,-0.21827704892121447,0.001782007381168061,-0.24163784535711572,-0.05020688443718603,0.07003493927538815,-0.020954262603991136,-0.200583699221873,0.009687686918434132,-0.10011375958936312,-0.06016206318998514,-0.035796978518764205,-0.22218309428990538,0.0477115733679431,0.2901366712099319,0.034040060682627764,-0.00021981403883157558,-0.07300615241254396,0.17953254251427567,0.15162626826796227,0.13898379117070145,-0.024339754670243234,0.24708036961169133,0.19325474266220255,-0.035968977856437136,0.08674023151947871,-0.23626176927172898,0.04728769971569109,-0.027328389761435423,-0.2038773487994559,-0.03165220985495745,-0.22971192785198755,-0.045863799104029504,0.11481669518332943
11,0.13063181861667156,-0.12218460945368174,-0.07301056911252837,-0.007098689172273899,0.006840967762516961,0.08001274340097117,-0.004008283253316758,0.2442023618833895,-0.05109800559966274,-0.1556954498274593,-0.01721838026577327,0.02964825529652182,-0.12453012704002056,0.05101223268089336,0.14391895428466425,-0.05598305913985602,-0.05093652742916599,-0.06752674428461602,-0.23385745078825038,0.10082286808510324,0.11800868462882746,0.1250885094799546,0.004949769670633333,-0.12216465185402926,0.07405507461626493,0.02438984503070175,0.1090434979021841,-0.025883035017900957,0.15513775607058106,0.005847983750433876,0.06258784590743804,0.14356239920127034,-0.03987568432194713,-0.16978098797373567,-0.023888916873701815,-0.061571261967817,0.06621254053090024,0.15598791295557854,-0.008223948012742708,0.2274483977356558,0.05207468971105362,0.028538114743716977,-0.11613503099755776,-0.12586475376896636,0.1569988744742165,-0.18582934748530663,0.006642459310373716,0.06305786061267471,-0.013285872348971817,-0.173746222091397,-0.12087150344518269,0.07473728593204217,-0.2219333398152306,-0.02010429061322079,-0.009225102114612319,-0.19005174417573126,-0.004087018011415311,-0.0888487638804745,0.12105130783123921,0.2141358805136284,0.12020844964378838,0.17604331608665494,0.13007249347305905,-0.4052020788025532
12,0.12872578142981622,-0.12173908671864139,-0.10779423699669195,-0.07017675892541132,0.08048383125446691,0.07406909222533532,-0.008599288134936878,0.23315041766634614,-0.09915425215121923,-0.1070941591700395,0.002187947630976801,-0.060541983311139635,-0.08323880544352835,0.2283447805961089,-0.1705164089889931,-0.0799669391626106,0.11761140211893034,-0.05415991337592309,-0.07025188230667101,0.059838420586396615,0.04611222592816576,0.0536192883816428,-0.04009975433181177,0.13110072248350052,0.12785414019726699,-0.030262835862341346,0.036371288964972215,-0.01824670365991163,-0.14035054851995762,-0.21361579206429576,-0.006811886522295342,0.19790595045213538,-0.21085308702810096,-0.11556811789326218,-0.05426831154176104,-0.06166174847836313,0.08554052240581775,-0.020637276203184615,0.02023047255187973,-0.024492286139298772,0.11357574484380815,0.0484189156665763,0.22667997854568459,-0.0998885229397928,0.01686004312537657,-0.10927141680754843,0.013238524990597599,0.117762305210259,-0.1266030332441463,-0.07719980039153997,-0.14697074064167992,0.05885277802718074,-0.09902763224114897,0.014465376835305674,0.25596655029300786,0.037454364686511116,0.11841069522020033,0.2205492165796983,-0.062454536927210196,-0.11624560130930633,-0.0612705279792182,-0.27712082493178997,-0.1482812535669051,0.3329044824620509
13,0.13095877998753053,-0.11454764183551294,-0.107308716839642,-0.10221523297356525,0.11807920326796453,0.03263505448507738,-0.017940495092973824,0.0886891471365927,-0.02954044576142828,-0.04618528676390676,0.016916015248071653,-0.09282099208828123,-0.03450481431466357,0.20186969099974073,-0.18956044733804706,-0.03065295229367885,0.1201644444271171,-0.025174879626442256,0.029364943696457667,0.009642952055049905,-0.029734803935238224,0.03653797537848516,-0.010214500736503774,0.06584688319865502,0.08357849108807675,-0.02979268062078647,-0.017403951075780896,-0.09528007706074615,-0.2887913175239215,-0.22557582920050667,0.03622070194463911,-0.014385967064441896,-0.1878636862938881,-0.20161956092378752,-0.02098719801162624,0.0882594220817145,-0.08681897791014115,-0.07713706458983831,0.016642925564352803,-0.1346049082385228,0.03053075798602784,-0.01573234985100143,0.14267023794331063,0.011790318044823653,-0.06929529350063379,0.13329048298880986,0.010938733267949533,-0.03857762485966432,-0.07286246265064539,0.1745200717104758,0.19803013226844068,-0.12747493710986899,0.24346351154417387,0.026839242541313008,-0.20903439009757782,0.13148351955746343,-0.14939532752996126,-0.12070703948964218,-0.05837176408476076,-0.004007216024004256,0.08612939719888157,0.3923254619756247,0.09817207917362492,-0.2696258035345221
14,0.13453152743255714,-0.09973875878638101,-0.07751578401010083,-0.11221534737843622,0.12386070116888072,-0.029048675951350834,-0.03916704039637159,-0.07482869317585344,0.08668168070354174,0.004284398517776233,0.01028446275175153,-0.03348826814399192,-0.027657972705770556,0.04418176710492474,0.019882907206085987,-0.08857058470354279,0.08428142741943534,-0.015055374769663874,0.08811368848730722,0.0386301569364389,-0.030483555761419742,-0.022656231522811043,0.03371832234882598,-0.17262529584382105,0.014034021602637448,-0.033428177645661916,-0.0061555916240464,-0.19110632397489655,-0.15949597713218785,-0.07538184677968535,0.016932367078630314,0.025698424817041488,-0.016102354697759863,-0.06592772222196797,-0.006591261934880424,0.17939238839716393,-0.1374772458876552,0.1520348943337665,-0.0016584061970800913,0.07359548554921932,0.013946878740188115,0.10233489585020937,-0.08946251217726356,0.06760049582244758,0.012191990156495275,0.20787125386239963,-0.10399214227790635,-0.13879965087262647,0.013103109769209798,0.026580103722940243,0.02801728226577549,-0.02672125772586595,-0.05766890640207502,-0.0508326849084694,-0.1300306498251636,-0.19502428956458284,-0.08760396988047092,-0.3200419053159889,0.38091577982203134,0.23009076942900136,-0.2393323886151131,-0.40127866967938164,-0.055904800245517694,0.1329172932524551
15,0.13520483324122357,-0.07792411410157633,-0.05106372731760799,-0.13043689228300726,0.12947166293012133,-0.0742417684045068,-0.039117741011322434,-0.21643593064906877,0.17293251692130962,0.04440859254021812,0.014034870434175617,0.005197014480829265,-0.08225918360537643,-0.005593236160948034,0.16560840103104849,-0.1370593595114702,0.07838207856658935,-0.02580117382988667,0.030049882356305874,0.09887129018119313,0.044891082095948734,-0.06066223209082708,-0.0763708045590289,0.06497550763370821,-0.024080756553594804,0.0011073194473518871,0.002755823717749274,0.0608533749037839,-0.028442009254368194,-0.0006322185456925158,-0.018402788612424257,-0.04034522762329082,0.04810592578649239,-0.07801060302710505,0.02457751157070158,0.1228845221341053,-0.14672715563236297,0.0429201046153871,-0.030438762679357512,0.09114137152779758,0.020095823812769267,-0.01437029937379896,0.04508054591544379,-0.13558939863069008,0.012483182047374482,0.055942746458223516,0.0488724557040625,-0.011790171454825261,0.1809430208239687,-0.028089075438294885,0.021728759124071025,0.022466630837413477,0.3995000316624189,-0.03029128293722559,0.10025003536003399,-0.41050830860302273,0.39664681305229266,0.2734291812148706,-0.11850363469058758,0.12755711943567305,0.18877220298655062,0.06346887349279225,-0.006673574911018415,0.026584942838259573
16,0.1260612591732825,-0.09814475760515708,0.04887871924789012,0.21369539361207737,-0.22680969957893723,-0.0021465343500526543,0.05773682661633864,-0.21806941136705865,0.03062717067449953,-0.04125299949869901,-0.0347701048421033,-0.0004811835716392321,-0.09519348126654023,0.3890451663901349,-0.1251632826481867,0.11671362678296887,0.01678778418428878,0.020597408825426933,0.05387093562933551,0.013708096397738956,-0.0794259651622927,-0.15279817516857108,0.020384734288510207,-0.3228196181492145,-0.20467300708619726,0.06997333274372475,0.14813149804172138,0.5560923461890872,-0.07349907910161915,-0.1822878391833864,0.0788012936357442,0.04663531386085094,-0.0666687769717258,-0.016373337060974144,0.007336665962570314,0.015697118272042204,-0.01275196538069158,-0.055118745851863604,-0.007786819170745248,0.08648875327820613,0.013890352235262582,-0.04045470408398667,-0.10871221538865541,0.006077183541043044,0.03881969042397705,-0.029130992370474108,0.00927125116302845,-0.00537677941509623,0.08341245633367245,-0.05788197811920748,-0.024274000359321528,0.03787919519415796,-0.003625255699651088,0.020389597380977217,-0.00523026513362175,-0.0031860046969955647,-0.014920021575991663,-0.03911430240063461,0.040402514272153585,-0.0034511982752720143,-0.059597090968973365,0.08963251706095558,0.004273601838468172,0.08807883523258098
17,0.13101134298526865,-0.11154285299674159,0.009407349779230063,0.16467903073618412,-0.17879214302974383,0.029105693444984825,0.0471461821124772,-0.1020421127541037,-0.014843962704796819,-0.06358861389542182,-0.012507441330198932,-0.014651618032725022,-0.0796243953494868,0.04840874401156159,0.10361758909689836,-0.01939372080045662,-0.025087713428256997,-0.051067800191742285,-0.060913687762061366,0.02372203841968469,-0.029821599238977578,-0.005659723843814357,0.055558591878167383,-0.2650967708333346,-0.007555660411079426,-0.012435676933031624,0.02393407377509335,-0.049779557827853926,-0.15626399344771164,0.06368692215909094,-0.06819813557777879,-0.1597668976572426,0.12481196909719611,0.12466671211253384,0.0616130158353088,-0.019594123541306095,-0.009291935858611107,0.020810343155207925,-0.04080420897701108,-0.12365023397459197,0.011547522511782232,0.016451318084458058,0.28005362126324423,0.0016018599635239938,-0.17321149057034624,0.008708996392716668,0.026717416573069183,0.07207786662537938,-0.22667028934043407,0.18466210802392777,0.031913478099257195,-0.04039189055986067,-0.02509256464363583,0.004049061483448219,0.029532464675033322,0.047547562295782386,-0.01300183568430488,0.2131790712247281,-0.07516672972421796,0.07300153565399144,0.1857089879508523,-0.43333154642063854,-0.058839678944799176,-0.4333269256327403
18,0.13155050130967036,-0.12201146775708037,-0.03398548493990097,0.09205611889259566,-0.09725045498147379,0.06396971378232932,0.03870996611115095,0.054437762185326276,-0.10699593101249423,-0.05316666595899587,0.00444554499198177,0.05614307370733612,-0.11866221986096476,-0.08972150766197393,0.2612101450575886,-0.091734892175164,-0.0821551661201273,-0.037826299075705505,-0.06207017397955884,0.042905527264553794,0.043592072369579876,0.1560307055216498,0.031666880323334506,-0.0916564650319768,0.07022638222995872,0.02232843877316503,0.00981538922191387,0.02859355005725013,-0.1575785807544781,0.04558734088720927,-0.022111669863709375,-0.16019450127952806,0.11032221442792749,0.08180435375984613,0.04328745524557787,0.04958038336927838,0.0544647544887943,0.13608269474314105,0.0005399792610652284,-0.03812723518210796,-0.07641623694560816,0.03049530857635908,-0.05463832066994524,0.20100811982435013,-0.20252675329317765,0.0068972861822965,-0.08020049148001321,0.06756749113656296,-0.46952439541604674,-0.0951948623219642,-0.1894203931191931,-0.002684024886381568,0.16158328122845503,0.023314899637574472,-0.12285672609115438,-0.08478633235533689,-0.010168422882694192,-0.03299400738211929,-0.0625546339297569,0.03963426634964025,-0.08156452656648132,0.3086868573276423,-0.020688094332621573,0.3785209791244753
19,0.12921674172221587,-0.12775564656174446,-0.08168062905856464,0.018081606720463866,-0.008598599907651504,0.09705598545662418,0.03810798301575379,0.18191101962915512,-0.21496925198588274,-0.005514895945714046,0.020599313882655623,0.09054592134583724,-0.10797864286316894,6.109663940517818e-06,0.1612471037282307,-0.14975526089697666,0.01496670793144711,-0.03710784194007352,0.019748567447587795,0.04871987692532653,0.0649802206181054,0.09694689620024217,0.012567429900966764,0.12344107859272321,0.014584258323960403,0.045082759794778854,0.015429255459905089,0.1921969781492822,0.1904989807825651,-0.06960111415789076,-0.08934949652442818,0.2283830611870414,-0.007162315607683684,0.19381189310203678,0.021709984633344184,-0.012146968757990546,-0.06257898810705127,0.15421572296879124,-0.04078046612304603,0.031736940699779365,-0.09968882443955909,-0.09724049161191357,-0.01598694964904314,0.2296351489372095,-0.41597081030818034,0.174560456289439,0.09477788850553004,-0.06731868289401077,0.3475317672615576,0.1875624474837169,0.22135974004267017,-0.05463219581337923,-0.0908754749557045,-0.15174323344141222,0.07952010727316962,0.10867127952119059,0.06896808455967017,0.01118592383311035,0.007633104610253941,0.009435868824590566,-0.07663976195359126,0.006477850329436534,-0.021160425597461674,-0.012612896801293294
20,0.12799976337515015,-0.1251127731179715,-0.1184641283233735,-0.0424308557259389,0.06209535133147371,0.08370953114152649,0.027337625884346097,0.1866981703614338,-0.23271259275029046,0.048699185387713465,0.008377142860345068,0.05882906370738532,-0.009041841800025624,0.04681790682046716,-0.1068653666000835,-0.15940945204883356,0.14337463264868078,-0.030729902280198368,0.10674541714513772,0.032893038853158585,0.017460781315058273,-0.195927098959148,0.004611842744320874,-0.11136308561161878,-0.10785439287288169,-0.0385498391740419,-0.010698537883813988,-0.016573179257273085,0.1369341371304204,0.12185215086366669,-0.07361310131947141,0.11122158626066023,0.12000366717101932,0.4375980953217541,0.029698687143809133,-0.14567562708161855,0.038178935727973845,-0.06131681981705589,0.049729643055710995,0.03445522477028528,0.005406389439518711,0.017782342843427702,0.008281670114917998,-0.2465509815031742,0.1876619716150159,0.007704146346325373,-0.01018261233740117,-0.0021609711795926786,-0.05315725197127063,-0.07479535925601716,-0.05323893308606556,0.016734239960110933,0.3170463138664675,0.05119778343549323,-0.20324855138930045,0.005151233626005065,0.08650178777230516,-0.3019316722511661,-0.0999660242510173,-0.1989619216175316,0.04244522856366713,-0.11273412361390721,0.05894861500321038,-0.028813503700741927
21,0.12878004475099905,-0.11934053194899057,-0.12220708115927834,-0.0824369041146284,0.09721435310944648,0.050855977676056055,0.018596969276618913,0.06546330781347373,-0.17644591473891746,0.09854346766135048,0.0024546699091548448,0.005608853950276389,0.05197132636614926,0.17571717175973378,-0.2478638346813315,-0.009797856650874848,0.1787494586810732,-0.0425259432709224,-0.04387868747433368,0.07513749700869166,0.04232578639504797,-0.2879755988734865,-0.09750426461523366,0.21895680312428079,-0.11168104607916418,-0.004534167369288869,-0.06488022922654316,0.024965046833377413,-0.06621173875047767,0.24548776988701604,0.011392674506109368,-0.3172345481690438,0.19869616334375045,0.07542067372312053,0.05512176907053465,-0.04777926497066324,0.14449990628077178,-0.12927352237491774,0.025036624831602357,-0.11255345812607048,-0.12054307378909893,-0.029291969787601388,-0.15228447583170124,0.16835456967429432,0.048160197425477544,-0.021937532368821677,-0.015876586284169266,0.022864328282148412,-0.025438504476467914,0.06295855048472132,0.010517765835728887,0.020419758459302734,-0.20705855465174738,0.007871623644609901,0.12333052906337033,-0.09117288099116166,-0.01396268970785439,0.2011052028088462,0.18547964058777544,0.3044821896176915,-0.0504990753626936,0.11894260102174761,0.004202611435196291,-0.02456620785458996
22,0.1327289431939213,-0.10591771550159863,-0.09866964305686268,-0.10839845385385521,0.12832239298710146,-0.010092186157516711,-0.006190991474464548,-0.09206277823749623,-0.04267530307436146,0.13461279192994874,0.019946439508133115,0.037967624731162344,0.07901137116630909,0.04234652727436583,-0.04182409995683911,0.02762352063907686,0.07691449130197729,-0.03618176705607623,-0.045871719177049186,0.05252162673933669,0.013559297429110065,-0.10322720517034575,0.04047101038896246,-0.22370758700077742,-0.0066963628558788235,-0.029602719926456786,-0.006247325557969197,-0.1960471194848682,-0.13375859864417197,0.06378086952515462,0.04292020212295064,-0.04764797462836179,0.09933050119569237,-0.02971617740020991,0.03623602731126462,0.09721895233712964,-0.04299001540282969,0.2281815245806231,-0.043811619472932384,0.17732611224591557,0.013457466106837318,0.03796322405430261,-0.08671912888607923,0.08614849024966606,-0.09782680157884929,0.06860025239236471,-0.04938797540724759,-0.1966435887653961,0.2211775797160013,-0.28177006105856517,-0.09420681196685302,0.0445560873628249,-0.2375099878713925,0.01889039724444702,-0.10265133371341616,0.07143686139739333,-0.23740756466079246,0.24444348900705617,-0.2823720813928703,-0.3717850067018891,0.14411836036259834,0.05748493491279822,-0.03562461744946935,0.021198625221439726
23,0.13405891589337937,-0.08504416435821817,-0.07073614242615617,-0.12471471807785833,0.12688852532802827,-0.060999811182709376,-0.018196351802623537,-0.24084409113247737,0.08806569374570887,0.13779631342526624,-0.006159136202485462,0.03644113555509723,0.03211607884638923,0.024762644902485004,0.09180336669519645,0.048999055258418966,-0.02321781468277606,-0.03498068836716389,-0.1674113771459554,0.07996519296954702,0.05204870356891195,0.014373958081739524,-0.10356672773466644,0.2159240490162447,0.05851558015480554,0.038727249527374524,-0.021041905364591745,0.10154342213823164,-0.07292529545467086,-0.0722445920979667,-0.08679427743742132,-0.007881442643858316,0.1504276482415277,0.16032398871925757,-0.030479986605634543,0.2072256234567823,-0.37178085831719515,-0.01472320374928352,-0.07777290565057902,0.18165440511210512,-0.08374590258247325,0.0556359003503839,-0.11145803633809456,-0.24586739610969977,-0.04409412855648848,-0.27094919466029577,0.049424583313604345,0.12059840749415575,-0.17854028656796433,0.1302149217042481,-0.06417021691099783,0.05199070438883377,-0.10264088888390901,0.018407170394341144,0.1462906330441661,0.3390299468703477,9.920368466454638e-05,-0.15302490853005485,0.01316208679033427,-0.07677012916933885,-0.14142792694945472,0.02027369707995986,0.03791267795118411,-0.07758272823863
24,0.12303798766423982,-0.09731401458052114,0.014175807660635515,0.2274165736631059,-0.22827766744743289,0.029794827713485038,0.12825109803607612,-0.3254449113790743,-0.05160256031588795,-0.04780038034262227,0.06212395202573,-0.3859612273776339,0.025261027921691336,-0.029815815715608734,-0.3197785766157436,-0.09611467733391882,0.051373392456571465,-0.08834023063509895,-0.1641155750325289,0.09156004946686819,0.12049788484193241,0.03744366966093651,-0.025987151066982406,0.16091517318993803,0.04342375620717298,-0.02073982819986555,-0.08431566875194553,-0.1327273441207179,0.42074148632469366,0.03878110608088833,-0.024532465161201132,0.15680435796642578,-0.009721207252904124,-0.058879689706363855,-0.07299467605798603,0.15163432991572262,-0.1290376098859799,0.022394577397632343,0.03421808826863832,-0.07049863849924244,0.00392896578373195,0.04826571876118964,-0.04899234680076588,0.13383948376552646,0.021794036367699304,0.1366852020812298,-0.11514020454390782,-0.021838548916771533,-0.11186149111738833,-0.10223644706398768,-0.07291834914566972,-0.021955465026958897,0.02537050119259382,-0.04984383589316638,-0.08705746254380566,0.023665837122938904,0.0685072556056083,0.013000744125919284,-0.03553300037795688,-0.006094841392510233,0.027890787457925222,-0.001412638642498425,-0.014436606015486533,-0.019933110891766304
25,0.12802310676356193,-0.10779085628088114,-0.002574547489757765,0.1938087216681494,-0.188237516212745,0.04312941441461485,0.09802847611963239,-0.21738241392303348,-0.07535771538786136,-0.04550191254139203,0.04426730242188351,-0.23907558601185605,-0.01975185637564255,-0.156135014979608,-0.035387483056229754,-0.11866414652351207,-0.025727817557447963,-0.03957274924613824,-0.023089675211091065,-0.02994087101491709,-0.011015747775243556,0.014397602511280819,0.004114957765566855,-0.06338103381681656,0.041949410175494736,-0.03411966432705183,-0.00484213451338146,-0.3002515924054204,-0.2092600460651374,0.03389471789831683,-0.011582216824336189,-0.00998632490987697,0.010288768810667082,0.059611130570033415,0.06553773852539255,-0.25491601553988863,0.1291932158755849,0.05932167042019698,-0.060508770597785005,0.1345925208030402,0.006623728337766935,-0.04650708091344394,0.036725287114095465,-0.2702995678384464,-0.004610601737341763,-0.19817939003184037,0.1973523503559469,0.049533073881088734,0.27346959207674154,0.20213904383745546,0.16788541238449356,0.010256072646891835,0.011703594792555484,0.09418912518945788,0.14990598127445226,-0.08489811711907025,-0.17665228819612394,-0.03235145527526219,0.08653609754202647,0.012906052079832708,-0.09526366095349909,0.15855036628726615,0.10754301310353939,0.21553727487567215
26,0.1300459981944108,-0.1192306493485592,-0.041834746949322994,0.1254004444860475,-0.11654922645225556,0.0740890315054401,0.08218599010949518,-0.08469104212017173,-0.13665586828082718,-0.001716294378865922,0.0032450955844582708,-0.0878716548253603,-0.012345404392667882,-0.25333052751372653,0.11522427997174234,-0.04899565295682119,-0.07229748510346398,0.08856746918510089,0.13075686294873895,-0.06339457043975621,-0.044727697062183186,0.013381666427658312,-0.0936904225298186,0.31500476143837414,0.056034716322397315,0.020973644775598762,-0.0003289656701351354,0.08987173801665321,-0.40151243541517584,-0.08812917569232957,0.06947992794216361,-0.10919803097557929,-0.07229714547547558,-0.0419077956963058,-0.012975173098810846,2.9939105052750013e-05,0.17049707616994952,-0.12076509385063161,0.045647530203675755,0.00134433767074299,-0.020827942921183423,-0.04300584354105141,-0.1494035166131219,0.09144474522047878,0.11251838453234157,-0.018357167261612427,-0.06918756548410314,-0.07563963141158783,0.13090929379751517,-0.198761627138872,-0.07393851035414287,0.0617269929979546,-0.09840681447089342,-0.10890716009642858,-0.06135106628515427,0.00395671945141271,0.2640589285219368,-0.22112152405988703,-0.05532058050243159,-0.15295692720799944,0.014958194497352466,-0.0957611316909893,-0.23813552409394584,-0.24172771838234625
27,0.1296046311240053,-0.12590177825412083,-0.0759179007254341,0.057813984319187633,-0.03623323622515686,0.08986473768448505,0.07751689937680635,0.0249989702220985,-0.21201369468103684,0.08304367483734144,0.006565164653495319,0.041625872927678075,0.04551234980392432,-0.2729714403840823,0.11978662218436735,-0.044474883961068024,-0.06021794907834124,0.128914210128449,0.28523172091669635,-0.12532505019233195,-0.07632581291892593,-0.007318064615501926,-0.023900922029196393,0.07358933983841401,-0.05205918154119568,0.011556607023608514,0.014521319196253282,0.10693279807677857,0.020617007444350285,-0.11033296343193298,0.026708227657357392,0.04065226483145742,-0.08215557250787353,-0.026532123601815824,-0.04607939100597082,0.132817983567349,-0.13286893747743816,-0.0643850531406399,0.037794429431534,0.018139757705520218,0.07475119113938247,0.08860217293305298,0.06793480825587608,-0.06161492594928407,0.16908183330723786,0.10578636770757811,-0.07036393063080958,-0.10832701651135598,-0.047389103571680254,-0.0999894924137559,-0.06391461725425787,0.00499485637931869,-0.01649812218950707,0.13872261015183923,0.048364353637245526,0.1601671206956974,-0.15263809958568966,0.2960254963243752,0.08478739763379042,0.18016284529432916,0.06710528195036611,-0.08177845482633932,0.5281000862421787,0.058755784039526734
28,0.12935306559181664,-0.12605735145988484,-0.10477391996617474,-0.007949399041629689,0.03546750375269581,0.07919987456583283,0.04990350778059147,0.03904373231900382,-0.22654746400400416,0.13356503310626686,0.012291782492440196,0.05399647670700595,0.11093654470834823,-0.15872366933162985,-0.004722298843242185,0.034156201088794684,-0.07950770205304276,0.10477902465202488,0.21152286389405478,-0.16045251308137767,-0.09082047472359864,0.02139994551089075,0.043308329007145235,-0.10041372676208533,-0.10180983004105965,-0.001944609354541476,-0.0024701688884340156,0.047895930570501066,0.2559479067412088,0.030420975004355366,0.04559615940614685,0.0014459392748960576,-0.020715845960107684,-0.17843519655232606,-0.031190756306789885,0.10749438931426969,-0.19389374439932852,-0.06198351073259084,-0.01050157305395725,-0.003067083840187841,0.02493420503696174,0.015876155393317493,0.09807397513063366,-0.1653510758884165,0.030212494477832724,-0.09952103224271475,0.022459550131983114,0.06519813011947082,-0.07895391891165265,0.12643954799590051,0.033435746080133555,-0.031334010627061745,-0.027125812647580606,0.02384076793448156,0.03945936101137626,-0.18105854906710886,-0.203663658945162,0.046832873719755516,0.0199799699538301,0.006099328564669326,-0.021237749805077033,0.13924128512731362,-0.6162456522256076,-0.028398855699783315
29,0.13055356938622217,-0.11765818523409213,-0.11275828033054869,-0.06104165792193132,0.09157208745038697,0.036143381169909436,0.021873845459281047,-0.05538733599596191,-0.16317073707039573,0.17213663215534847,0.021648316236403755,0.047449888564820804,0.14985042536997925,-0.027014223128846295,-0.08718691037688386,0.19742824670269213,-0.07958425719473525,0.03651052159461732,-0.0401298465927562,-0.08259496703337921,-0.03681316562086989,0.03238626844942996,0.05557983361456506,-0.10633294200352196,-0.06141173462732957,-0.000586645898401586,-0.021471577957048696,0.006623566121403579,0.13401049019193306,0.06428365184364063,0.1020750699268012,-0.13658458304287582,-0.017257223247256884,-0.3636342375439527,0.005198175313977137,-0.022725742409011013,0.04649846614677221,0.00481735569002309,-0.04797185956808442,-0.08287567735684323,0.02783966813433819,-0.08960257461453883,-0.005341900887562506,0.09235489359184544,-0.16953365922191668,-0.19010937537776254,0.08416697850918756,0.17392221600449576,-0.04026791800525063,0.14953866495607246,0.06459484376098405,-0.04843527870266798,-0.06945918529075862,-0.1454267411555269,-0.04351111371710312,-0.1535942383732957,0.2580821116694445,-0.25711752610330074,-0.1607370805213865,-0.15555837766777045,0.03981687092192973,-0.1794602562247344,0.3835118901369156,0.1129825205247888
30,0.13192769384051842,-0.10391943853442598,-0.10077591618267914,-0.09690883289847504,0.11520932312387434,-0.013949074421041185,0.012049147927147516,-0.15762744128745637,-0.061569377968206905,0.19869376446844922,0.010692372756772428,0.06668247885106449,0.154591446854988,-0.035955851935950085,-0.017463660596582126,0.23495477958024466,-0.10421288674940307,0.008398109573335116,-0.14904478743933974,-0.03826402507665003,-0.006788279155504534,0.12047467084693957,0.10715513237345475,-0.21533591122083665,0.05802506688097647,-0.015543248375998533,0.030931618563462826,-0.10059887060974436,0.045169419733274,0.01190370841605426,0.017496781041649007,0.05296303597145675,-0.09041427297667803,-0.00889984625693669,-0.0003809860305463708,-0.16480343567276334,0.2235355271820173,0.07240984516697047,0.017422939574267906,-0.017228617436992583,0.03380534346749939,-0.023775894540039012,-0.024692006739184553,0.12281215051852451,0.03282818612706401,0.07300328582700853,0.032747381090537195,-0.004625617853588615,0.07234274318524525,-0.16839473406095917,-0.0462707237915789,0.07028370721162672,0.36199403138439584,0.08273412160742827,0.16125395713348245,0.4107483415631673,0.19476801581948916,0.07525975057248802,0.20282666494587429,0.18360330385158785,-0.14041540657804277,0.037491329978227524,-0.1421602801323205,-0.09528476787834354
31,0.1331090421052274,-0.08506116575600828,-0.07381507593687803,-0.1174571951622494,0.1227781446440659,-0.05869775504503772,-0.003372862509902858,-0.26497938499825174,0.042965549099840974,0.19057931147295493,-0.0036961099311457178,0.06350134607486038,0.09561793993590079,-0.010600826020388244,0.07778419146398463,0.2202439423928398,-0.14406336510129986,-0.02368152828833914,-0.25257927866671126,0.016927201308572608,0.06016822605352234,0.14934795827608455,0.0002305160970849096,0.137995317688416,0.11431254527849449,0.04342772647252838,0.03504997470764448,0.16539124156388912,-0.01244232711567441,-0.11011723085936356,-0.08100419062151697,0.18626019326026094,-0.10380481916110987,0.2979995725791445,0.001367018010957205,-0.19419254281597134,0.16966187929324397,-0.12674320899466135,0.06586470995123096,-0.1283300026565597,0.023278489858675422,0.008423934745470762,0.14840413991285833,-0.007438602530090044,0.14277230521273582,0.15511630110763924,-0.07305337406193206,-0.06367002324441857,-0.055688402315165385,0.06572802749922163,0.06501346709421549,-0.08492701630044025,-0.1819442844107495,-0.007903327553856754,-0.14936428719316555,-0.3299065421826446,-0.21945036824642478,-0.0028979173606056355,-0.03772518002827583,0.011088310484106308,0.13045176484623214,0.002212889832813047,0.008494042464640111,0.06431252067887137
32,0.10752296238681042,0.13989220207180028,-0.13036443957289903,-0.24655332065545044,-0.2646877789588981,-0.27599977412953053,-0.14494220116429174,-0.09296022034144089,-0.16983919370422823,-0.22600868429771362,0.08810964200439517,0.16135217955561496,0.08956416859011564,-9.803306204306162e-05,-0.08701048231804676,-0.2123715363767002,-0.11990926646561244,0.28540004624805826,-0.11342493228098545,-0.052243079716721035,-0.012803938426207424,-0.16336733987609833,0.1376981612721319,0.02101182365438134,0.10281648110245489,0.24579180549824764,0.09868692727140307,0.004633752045734865,-0.04090509836939163,0.010284993734139047,-0.03987474605718626,0.05662715225342577,0.04102266786299924,-0.028834634575990177,0.015354817487882665,-0.03975459573848884,-0.03651447677676989,0.0960834009661364,-0.03559525657188495,-0.25344860308371714,0.03313870020371613,0.17773765736761385,-0.07377188833462511,-0.04183945582985499,-0.049755966891438,-0.09609374997713846,-0.27662737563556644,0.08683205151477479,0.0670943875551823,-0.05853634015182624,0.09454283036037679,0.062337296668504155,0.09422122616196765,-0.14592401926475362,0.11947800050381645,-0.0090991203248805,-0.09528259806325441,-0.019860643861691556,0.02755053634715606,-0.025373457796139663,0.053653027867744896,0.009356192401082326,0.02309548598322958,-0.008395645701971682
33,0.11414030974444728,0.16622421169537654,-0.09190292835436518,-0.16123801956111636,-0.22525316266811266,0.008335849541973752,-0.21444843212442394,-0.03218527004968841,-0.06115609047773122,-0.04089938630224574,0.16948774834643024,0.006308021425877832,-0.07109687198170409,-0.015390567632686135,-0.025233359035111695,0.046802120117812804,0.10309703426830277,0.2681643510844506,-0.06131050319106582,0.027457418417673993,-0.008853981992511686,0.01959374009951957,-0.024227061285943,-0.01748200099708258,0.006269321033754535,0.17179617428703034,0.0629688045077002,-0.10909958295440197,0.09761696318503041,-0.12851256517053833,0.01702070478667251,-0.06430440010520502,0.09481689147641129,-0.03861248699885482,0.05004417311660859,-0.07800577506910206,-0.03375656187593215,-0.1800448829830224,0.14548040337239915,0.3307458832587604,-0.1383804109681303,-0.12101263571644347,0.16067872513568968,0.13191928196420527,0.07710150124363255,0.0822093679718674,0.37043340572788386,-0.3092038064103566,-0.22101024235685612,-0.017262323456232534,0.11966858889132317,0.1606159369852081,-0.0625610360071918,0.03585651934484245,-0.026420849002038983,-0.014427077018568907,0.07997221694195768,-0.01043022685139508,-0.0783577383229975,0.014182307708466985,-0.07763189050791537,-0.013851038234245522,-0.01159308240546325,0.013217588908156035
34,0.11328676182181355,0.17129029654512576,-0.04702719133688723,-0.10300573832355894,-0.174464163194915,0.21034517709465478,-0.21488609461061847,0.003288584726427797,0.030534749333789166,0.12047529124481483,0.07788954391670734,-0.08911590093730158,-0.18754524006615897,-0.04726752157441135,0.055312995021658054,0.19208075848305153,0.27901391791920815,0.1444819481280776,-0.017877972066822203,-0.12683682001962604,0.2037912491692404,0.17496450488382248,-0.21252960335299415,-0.03292400052416253,-0.19927730323872928,-0.137556974955377,0.0014176629431288702,-0.008475209650798298,0.011089572269204984,-0.01585798478797537,0.07155940333392088,0.0533822045979302,-0.10604450668385393,0.007148073210452688,0.40131712509153583,-0.010696593062512597,-0.0018659333162566738,0.1102499334546164,-0.21762920151257248,-0.28301832604567617,-0.1166379783420298,0.08678546406178156,-0.11661395969461091,-0.1653682700877627,-0.011844725880736859,-0.013776735783628938,-0.11636350003827084,-0.03465628739411336,0.04020606721726577,0.025141441453359697,-0.08824112227578453,-0.07663592845520417,-0.04362032637968599,0.07513407448514758,-0.02444210647809275,0.03265995912879009,0.04474721753715542,0.013157082028645576,-0.0027476075718961407,0.004122982845293416,-0.0028710632541703255,-0.0029217579706851335,-0.011365392666814855,-0.005644619701738594
35,0.11890703399919578,0.1548067433905517,0.025443230074824116,-0.11339715432717705,-0.12430186737288001,0.2693181576280133,-0.16261118484691153,-0.0033378380857858364,0.051566623853143444,0.13432313303109814,-0.030314497052132686,-0.02142929424505207,-0.16982366437714552,-0.10548985841478072,-0.017679500869966572,0.05783049915046388,0.20301957025264097,-0.051113454872166286,-0.08865058022134711,-0.08561630565667151,-0.1480990398020225,0.02124920853639315,-0.07489541871663541,-0.019339888710125763,-0.03761439650630363,0.1102863891119079,0.14137264078821732,-0.07343704394024368,0.02268485640531652,-0.0242965256653376,0.17356500393525454,-0.13040085424786457,-0.02546988467884806,0.18801362118335885,-0.5903507061128589,0.047799976871307714,0.05041526254788738,-0.055892520297580184,-0.17238268688209585,0.12688394947644707,0.11220846836815011,-0.01471805863023935,0.02939756303148658,0.10207827058419952,-0.02730305368241182,0.03289541879317317,-0.12209466748768658,0.25849846399862547,0.07836296626057873,-0.0024087965950071438,-0.010980209733428621,-0.05286781043552317,0.07267343447106714,-0.12872771560983864,0.050343887651999195,-0.023713979860728953,-0.09344819419466258,-0.0032769606363173553,0.033288331401392826,-0.019750782709538353,0.057541295437677865,0.0055924340598843825,0.008254857829069928,0.009014597411291542
36,0.12224960114145252,0.120721473942485,0.12280927871777632,-0.16218946607889542,-0.08042133604340224,0.28334688442578326,-0.01657737562838591,-0.025461914559147824,0.06185090966458344,0.10612813006676741,-0.2573919709813906,0.06516326312494355,-0.1670422509596195,-0.13833419539307903,-0.12186047030151219,-0.11616809309690285,-0.037296434891613085,-0.019355420973798762,-0.13915139970950693,-0.1503102847214111,-0.10958990533714037,-0.14260462676222602,0.11481474712489562,-0.009559194989228581,0.20619607368838364,-0.2616428109723906,-0.17395251602545414,0.1890909841666036,-0.1310169234083343,0.0979510090728685,-0.09885166316047986,0.3123111504181011,0.3367454897925447,-0.20763452338989902,0.06830990490235436,-0.1174989152790288,-0.09921001650437933,-0.04374501364687336,-0.006673495129953966,-0.020980986286712994,0.1863180200671263,0.0014769016439781582,0.002507018779809689,0.16804235257851552,0.06791424796189009,-0.046844233260031426,0.0809801066672603,-0.07891657296566983,-0.006260655042293006,0.05861460443299309,-0.05702936848722204,-0.0057085980656352425,0.039007222919924034,0.014317243971956217,-0.022172636600312323,-0.0003369336128896394,-0.024882962983388338,-0.0018065169582941534,0.015372123925410791,0.003023979548230804,-0.016124603114700327,0.010933001476690594,0.00017320239633492746,-0.006753212035511821
37,0.12564756885188816,0.08064059042885564,0.19564438957718483,-0.2008417530724736,-0.0542899586785621,0.16741899081945255,0.16392346975397099,-0.02261519883917125,0.033033916490279286,0.02586104746218949,-0.239164781062298,0.1525401075227452,-0.08384239315442116,-0.09514312846936725,-0.18644108075743457,-0.0869085804816686,-0.1686762028544156,0.009251724112140763,-0.0249978486855497,0.3097039351437523,-0.19619331225634348,0.0876202152283901,-0.04116122954318511,-0.05391794278481882,-0.10478112826132527,0.16855226894255151,-0.19054603879701393,-0.043886140136216556,0.05125786263957091,-0.08988528036224883,0.008345338875337505,-0.05124676733057065,-0.059566691036051486,-0.06412484742058708,0.002387956969612097,0.10414362086097348,0.24303619292067302,-0.04725136163689822,0.1342269837438166,-0.05563364521181423,-0.1304936884476924,-0.030120175515110124,-0.17193331510556104,-0.40383091597798076,-0.22762471236368645,0.2198806962055766,-0.01619782790373494,-0.029136242279413943,-0.054040236307571946,0.004525402878144402,0.01802497706754844,0.08754966713721975,-0.0712987706681073,0.03824755617359819,-0.005721094693445394,0.01965835626943261,0.033779087850399875,0.03364965711292295,-0.010037808611489202,0.0015812734017786878,0.0007241061278723815,-0.0138144674908625,0.0013049333734852925,-0.0013153305597870851
38,0.12485296113678122,0.04364381715575713,0.2457523188378484,-0.2103446170036997,-0.04780573693835492,0.03850365068750054,0.3223759820115851,-0.011541325456124634,0.017071574094897284,-0.030046942727499613,0.048373520960576386,0.18863239938677362,-0.10118813871671851,-0.04676419476199418,-0.16820865971974977,0.044666779684795356,-0.10963330553020638,-0.03106623485015854,0.16222657527980078,0.23795548231883837,0.023901972758405925,0.08264584699445604,-0.17854670189649563,-0.01551103054974387,-0.07136122408893607,0.17150541539367992,-0.015465880537997828,-0.08592894987181458,-0.006705168382339921,0.036374788557862914,-0.1376229330091646,-0.03307468771033184,-0.181511586124198,0.10903411707916905,0.20040830257137274,0.08184969508796341,-0.08304178796166072,0.0917782285202243,-0.1965779556231227,0.04382511255063187,0.03849198108773382,0.02049957257611846,0.21210724142710366,0.36496135977161426,0.2553849258791862,-0.27565781268837014,0.02818892063238388,0.05418422465977843,0.07093406271977544,-0.018522280129756277,0.01193312019951727,-0.067809434154663,0.0442458762199206,-0.03007953226213958,-0.006551586115886493,-0.010406137047777153,-0.03243843630234171,-0.04012503020539585,0.01924724145378917,-0.01128932201629751,0.013745665925962991,0.010807455055992121,-0.005295482437652946,-0.0007245836589484141
39,0.12239702879908472,0.014113866036485399,0.25938841248985456,-0.17629806374203047,-0.04613959659010528,-0.07286485915082853,0.3498035776813994,0.019903146065376874,0.02313461745351641,-0.04566483318371538,0.4105390066180322,0.12299018766938848,-0.1570893769986466,0.02197765066941757,-0.04070193748961159,0.16460294204591225,-0.0026756623098583543,-0.138459586566793,0.1530098589734817,-0.27763060358142444,0.3734469471208041,-0.07455840894352914,-0.011750363587559733,-0.044158178706496146,0.2455588620289092,-0.007784735918215496,-0.016309296382769123,0.006679492096168221,-0.03328960583946011,0.06576403205649736,0.18539619517374545,-0.001062130928016436,0.04767671209387791,-0.02324028960503427,-0.15882978421375088,-0.14787978413268477,-0.0975062732640154,-0.06283105264267584,0.11009308958538591,-0.0028153299904524393,-0.012627936280076163,-0.01092504115355436,-0.12265054069257972,-0.14001855985126369,-0.1127342822364315,0.13249003773385365,-0.021140756495823504,-0.00993549372199809,-0.03784004091108481,0.021769819501880998,1.8532410560443205e-05,0.04465673665522327,-0.032078599913954654,0.0216351681198607,0.001891767865929997,-0.0014000782495456054,0.03386922107482013,0.01955097272316833,-0.011680755609046273,0.01127993720825854,0.00011339607134498719,-0.018101365009923653,-0.00483736838671979,-0.005482914001600465
40,0.10848143129369042,0.16842963395436103,-0.15601967225234062,-0.16795734591279035,-0.2168000815178428,-0.2537323966279468,-0.045941559768213736,-0.017121572640188928,-0.11739823085826062,-0.1519519309855638,-0.005528709475428614,0.06861191413873698,0.1341383942996264,0.019518559377188688,-0.014615631014090654,-0.07735770071944348,-0.10857514333862504,-0.0903479521699517,-0.010566958322171586,-0.0008847201665891586,-0.04653078089241284,0.01240999525588124,-0.006496431634186834,0.0015812705813299799,0.009676215569938012,-0.1830871597640329,-0.07541952502224364,0.037297041935458825,-0.026093231707245396,0.06691416843631394,0.038348800583928436,-0.013057857555888551,-0.1055613497119342,0.058257271525356424,-0.14253118547160643,0.10701393394489994,0.029026852468182776,0.04003220665284061,-0.09365874041138032,0.06816587921062214,0.04501555189260199,-0.13533083113614047,0.014888972845812254,-0.005702933209352348,0.02065022699048373,0.07135623628324016,0.12745049745554748,0.10327286250954804,0.13134027853639244,0.16855674199585724,-0.29110079060304495,-0.30705129945629045,-0.15183341181154356,0.416335088086651,-0.2607513751990359,0.025838804071211703,0.20208120109644162,0.0501209360526369,-0.015086615266802736,0.058844274157080406,-0.062201488984699405,0.015528813533861173,-0.03607161205227177,0.007287218275695197
41,0.10890957425012066,0.1954689932787792,-0.15036084165527772,-0.06311392402116837,-0.15688448130145877,-0.034718948451795247,-0.06059541095104816,0.04704177477421056,-0.02237396131599578,0.005883329285369923,0.09821859745344681,-0.07512320404240877,0.05882785525403426,0.04536209535864074,0.06604826163684219,0.11255944937857551,-0.06170157841463311,-0.06834951190984821,0.1046062717407621,0.1314816701454448,0.07641843807438435,0.0668292818261401,-0.08642297408904927,-0.04998159799401793,0.0068016905947867745,-0.3005102352958734,-0.21912743815099361,0.02314963847583093,0.026958543374845323,-0.0853698599712899,-0.15245232615176865,-0.12186094350256671,-0.0091092932904107,0.022818468097944716,0.20310918665332559,0.06653392614848874,0.03624777468384587,-0.1678144765328099,0.41732145479708826,0.24060478706984145,0.19521267944326187,-0.05553922895847695,-0.03281901933287962,0.03751034274686972,-0.08588210938782345,0.013107631502495595,-0.11681052100110056,0.24846643849534905,0.09700371054182377,-0.013971383858371713,-0.09402815215252006,-0.02207173949112156,0.10875638658230058,-0.2878349837163907,0.10515864858672858,0.0015206801429448538,-0.1900006300279819,-0.010167204118225553,0.07923656895539909,-0.02795701734347202,0.09092592067913785,-0.01447104688345608,0.020667077132805998,-0.003981971376638948
42,0.11017795340330526,0.1925760180687381,-0.09395305154693145,0.03992973076813794,-0.061154775723195144,0.1676216419921615,-0.10208730391347202,0.04628088478857699,0.04570734261658337,0.11098945895366974,0.17075782703160797,-0.1501468588552863,0.05896477786899982,0.09850956727853351,0.11414238822596955,0.13974581229550342,-0.08360501763822017,-0.12299908861968793,0.22848547941309713,0.27504950694680225,0.15944590412631868,-0.018713894451167657,0.48678211502459967,0.10694596777487411,-0.09680572809845885,0.24148755973833813,-0.08948071151639614,0.015539274695062624,-0.17035054415201772,0.3129273463653559,-0.10068054776224475,0.2407084723526301,-0.03226476341950249,-0.1025202347357962,-0.07094441424641297,0.0804457190986508,0.05896746360916483,-0.10143258935768482,-0.17020212627113235,0.04244605233497203,-0.029361661944439864,-0.054570586304067456,0.002095559051918841,-0.06902990527510502,0.013503796781078825,-0.012693594405899705,-0.04614567462678136,-0.02608518216631791,-0.04972461741546187,-0.017616953947395264,0.03581907905895912,-0.035980068527863944,0.007987629819533187,0.002054743628083472,0.006200742744324195,0.016799253823648386,-0.00978695663435683,0.0062952349781198735,-0.04055443350563059,0.03962752727126828,-0.020592146453078497,-0.009666177598229055,0.0057175027031746775,0.00010453087115559517
43,0.11706215875568338,0.1777193063498602,-0.020252167363316843,0.02666909493628802,-0.013676404987866892,0.23814516715328837,-0.10954750706938605,-0.002515858406863195,0.06578531462057689,0.07863393592410688,0.11820347448430821,-0.04911241805986532,0.03875094845931647,0.054628666667868545,0.04996208838667539,0.008311638371107589,-0.08475828956012234,-0.21517431710228252,0.04695374844398656,-0.031893696140789685,-0.16407580318184625,-0.1201420801612999,-0.04043486623543749,0.044611622299963266,0.14166348364075199,0.07689676957816707,0.22689912922736177,0.006865826410530025,0.03616163608762958,0.05692296453849651,-0.043623244037281794,-0.08735032934465495,-0.12152999812954716,0.10982377801734752,0.007788987259627508,0.1411231781333225,-0.09697077782305714,0.3519184001142369,0.44873294473445346,-0.33726541708678837,0.16043506070652064,-0.10027813640854066,-0.04238152132462693,-0.021888082476955277,0.045296447123171615,-0.1391705539671376,0.19199013547163202,-0.02177239791663288,0.0102509092822674,-0.07647232886263225,0.13206899463904562,0.10221788379277101,-0.06374128135396878,0.14773755692619908,-0.0344511345817933,-0.0218283672598287,0.05203238175455106,-0.012574694984782834,0.005672045980420646,-0.012216851984321795,-0.029539233469689882,0.011709495340488207,-0.0036504421102200833,0.0009387063568732203
44,0.12307219304519525,0.14997646796736916,0.07813097264998942,-0.0028900980321246226,0.05230838313589582,0.2351316874801097,-0.050221471402253505,-0.03830972663761739,0.045803983719073266,0.0065376046554229674,-0.08427158554398259,-0.005106875613533826,0.15501926390009982,0.08757456570153112,-0.021401533987808162,-0.21140750602657468,-0.13211561807821948,-0.10451158135644109,-0.04883614338884271,-0.27364834664679355,0.04516464429619059,-0.13204341184442459,0.1128892858573575,-0.03191513930443937,0.19491723845315,-0.16212474866217666,0.10331165852160172,0.056674382915719614,0.09023606610314831,0.05167715102458703,-0.15619065624610837,-0.2112205483711834,-0.3593998716900831,0.009268006781880167,0.10397042896742768,-0.0049733679051310875,0.009725490426116312,-0.0851116398058421,-0.07895512623291649,0.25849954040124973,-0.4323389171099252,0.12027803131784542,0.13490929338374602,-0.004449580037549666,-0.036781489258709305,-0.023447299530233435,-0.23077716949951632,-0.03535441951822267,0.0006959010182600589,-0.011968263180356702,0.06311747268166086,0.05648061640617334,-0.015869670636514722,0.012492722911068135,-0.026107027598987725,-0.0028588314734335762,0.07031404332098914,0.004609901891726109,0.018639128450660694,-0.01934486022057594,0.005335191775720061,0.003801909082290472,0.024093150771341627,0.004729731421268077
45,0.12696947000049952,0.10034783724938955,0.18704627451025788,-0.07524986176262347,0.04345921632556961,0.1405873816225251,0.04711718699679157,-0.03436085714324555,-0.021274123815235146,-0.08012606597772842,-0.30948746476591094,-0.06969873657968874,0.24523234624078732,0.1604746747329605,0.09772590605353923,-0.13869110983905622,-0.06963259844586661,0.12227918815211504,0.003868787949752628,-0.019911765751473798,0.34903708963267704,0.11158685176597068,0.2887631208318301,0.08728002942238548,-0.24882369935759857,-0.03699137516345886,-0.0898001503573863,-0.07140974964152436,-0.003880487361889534,-0.20833644871246967,0.4099746488638121,-0.12752088507198736,0.07831620371310077,0.1504424580737525,-0.037014239453235905,-0.09765589485557861,-0.13976955176644382,0.06823458265458351,0.14480239511827392,-0.07524229356130352,0.054500418467709394,0.03335372529382839,0.04108061839271857,0.06333305575293338,0.055292403094186676,-0.08888454066440124,0.09628533173749552,-0.028544367763229328,0.042932178674260656,-0.032466452236752756,-0.025876684230192938,-0.0763314026467092,0.014905329643964377,-0.04443453755820949,0.025168615941382894,-0.0024559500720669064,-0.004802161830744778,-0.0003086663091150174,-0.03449797428625273,0.03177474547453522,-0.012721994376133625,-0.013984916049818441,-0.008980625733499732,0.003091263669780249
46,0.1269777363175446,0.04398343086762266,0.2741736715808261,-0.11656933535728475,0.01293170241039973,-0.01003803413150275,0.18958179700275435,0.03340881787982462,-0.07076202411869054,-0.05583795820953384,-0.01850425724594797,-0.13147598688837234,0.19160193833081993,0.07279259114156947,0.10139391452440573,0.08629918989234865,0.09272074902731271,0.24179391550139345,0.02013643132087599,0.19805683638698227,-0.14236572364744438,0.07139116396390842,0.01773793038508445,0.12066172896489649,-0.08782558552151169,-0.3197820558130342,0.5900083065342001,-0.05628002311674027,-0.02144762843898379,0.11206095028106502,-0.22790221449081782,0.023139851854806916,0.07977589505030666,-0.08045872235144098,-0.03868349003190928,-0.11849003562341709,-0.07737008556874618,-0.02607994014525524,-0.03858519723631945,0.020204615457671646,0.07194509738996821,-0.12400099342210207,-0.08365911266140251,-0.0478052269241078,-0.0726935753835755,0.11884783054013488,-0.07940484220067023,0.00887253268090811,-0.05567494435448647,0.004830551891610579,-0.005356236873615451,-0.0056757640522437786,-0.004048118693436437,0.01720144790073494,0.009154224356823927,-0.0062741356157974965,0.0018060516129197457,-0.005871729531336578,-0.0023218996462790326,-0.019548997574312138,-0.00186923435511821,0.004490503732870264,0.004202295257741892,0.006052367339272574
47,0.12747826842594248,0.0009309574498234237,0.26462591067367003,-0.09605227203940322,-0.007738983085637215,-0.13662977263133327,0.14359708662412077,0.15397817750125617,-0.009740238626198544,0.06846520795853767,0.32749834357735474,-0.15843887286965783,0.03927672461503654,0.02189637033100851,0.16726608201563128,-0.017058804627320963,0.10986373348295377,-0.08806773704866887,-0.24268346238633492,-0.22607164907590171,-0.24873542557159267,-0.08560169171374402,0.2325382900079125,0.08932402956048763,-0.22204854380773842,-0.03887218179445929,-0.14822763568409086,0.029162112604851048,0.06261399834206116,-0.27922372840536014,-0.11227717204665963,-0.0011479341027550716,0.16064317635418288,-0.008972858209275208,0.03842894100462768,0.2800561026621558,0.29924061172482364,0.09188991547558675,-0.036463110287348555,-0.011339709725901134,-0.06561711540762792,0.08650333008677742,0.07448034960779552,-0.01653836021298913,0.08956912557144894,-0.09072369775504463,0.036379015276418146,-0.02936838752109347,0.030370590501505597,0.003381412545363116,0.0027752725682675186,-0.023293635961275018,0.03002147243872326,-0.024341887785580024,-0.009809904385253282,0.0027975839121061052,-0.016513476510318204,-0.0066455790966434836,0.00783408514648759,0.00032046959325507385,-0.0016883959494442963,0.00500313266846357,-0.002583987244987672,-0.0031638340129824354
48,0.10672073789967557,0.1830693530396489,-0.17870307763869572,-0.06381206002726499,-0.12579051297540808,-0.25579541598795197,0.12376494569515206,0.03421165228824782,-0.0462230384070734,-0.040253646655388206,-0.18887532278913094,0.0018547817630658809,0.06389942486922538,-0.010467822395134425,0.014646450748918797,0.006234112518835308,-0.02326193385196142,-0.3467164724104225,0.04278558661195116,-0.06404920418230334,-0.05596935565348302,0.08586726060613431,-0.11283809876468116,0.015370108982006477,-0.10489889556147974,-0.25174140717815785,0.015904832409248663,0.07123912795097442,-0.047016223648368494,0.1399798012191392,0.1504577874785356,0.06537415157799902,-0.08780552020595248,0.014205821413439151,-0.09308507898412566,0.05389885051913417,0.012510538866965654,0.08856234221403345,-0.2145914264427518,-0.11318274642406925,-0.15475662931777154,-0.04384038005417727,-0.028252818249965478,-0.04237891288904089,0.10438216184079592,0.07682005908770541,0.2619455946757576,-0.19408005431735154,-0.20304169424847116,-0.11361022910065022,0.14786100814351014,0.14737660683252718,0.06423998499661904,-0.29794754769941,0.19169586444978498,-0.03325268911591514,-0.10474948169285161,-0.00953434717514079,0.07608847108860886,-0.10921537908547933,0.048223084476206636,-0.004747696623800209,0.035372013332675645,-0.012206752980055078
49,0.10812588156398126,0.199438108157302,-0.16539857065550578,0.053776057641014875,-0.022266564466104276,-0.0974491837354581,0.12486655867699228,0.08813093108299871,0.0342710975767185,0.06745332546589598,-0.05977998049164563,-0.07334741005439799,0.02649360647282404,0.01613759509475853,0.05317989822376315,0.0640492054744992,-0.002573962269593507,-0.08093024428454094,0.10340549302479381,0.12792417693809116,-0.007659081048034833,0.029640994016349235,-0.11636230967337846,-0.03972932054737659,0.0036319912966702034,-0.13140284506858146,-0.15153677443370062,0.022479934038517224,0.0855660725968163,-0.22506042311693342,-0.09495373828689274,-0.0983575227684121,0.12052456659906283,-0.019814838682590596,-0.1715712401069055,-0.2028354140452146,-0.0036066425724351134,0.013681631437798245,-0.12881554218750224,-0.008215134237069235,0.151524923735087,0.19926334343287663,-0.011848321008518486,0.04146867845611879,-0.06032418284945558,-0.17469146903834554,-0.2801260494103111,-0.11629964498520051,0.012595673496440515,-0.0569076965341605,0.33122731672379435,0.24221314679835873,-0.05465201261319114,0.23788802325317818,-0.09241928499454624,-0.0017388710202858437,0.07366769414354757,-0.034072134094878845,-0.29365938401331926,0.21837434979002196,-0.14156306639944263,-0.01675475243343455,-0.03884220812937113,0.0023748934691811205
50,0.11033019735558396,0.1950791687606897,-0.11497032175534824,0.14817516603713296,0.07957511655049254,0.04675120914955681,0.0715294429084864,0.07210071212282962,0.07465641103897744,0.06303905788379437,0.14193013483679218,-0.051321740622374705,0.056506654432620734,0.032285023134045555,0.03169476036254514,0.009991239285964099,-0.10418785871251567,0.026788710295915067,0.09033918738061872,0.21254485030567805,-0.1015711029867096,-0.01862384657611877,-0.0718794490605039,-0.02121669013120936,0.09462829304010434,0.038118686619733805,-0.020563160768421976,0.010714384091143406,0.05287170768017989,-0.2020690444092901,0.09307657414665038,-0.02017753492154702,0.25986208893442264,-0.0663562563945375,-0.04576605537527182,-0.2195256350688251,-0.0715693221009983,0.0336417728302133,-0.06261915166832285,-0.0780563725606788,-0.20230408872912606,0.19234126371892016,0.08121087144587477,0.045726337161230084,-0.001739998805702199,0.038139534886209574,-0.0005583073967035876,0.019277656612767716,0.00027391187494135716,0.04140460298553765,-0.07289627753407074,-0.09067605667913077,-0.01740076883296636,0.10169789286408869,-0.011673490749284508,-0.035441344839097694,0.13530435574381927,0.06497374431266417,0.499166050232161,-0.3695576337330184,0.21222678647947166,0.0746077080716736,0.013131027314083749,-0.002845790868992027
51,0.11517956216345036,0.17999569498326973,-0.042487829453671126,0.15968094545087308,0.1396276912115184,0.10736227444760017,0.000895056964964168,0.0035305594472839876,0.05031323918267842,-0.02449633487505512,0.1939939273513861,0.0538894472680873,0.13114165269225778,0.05093417008535216,-0.015388460332550471,-0.0814617836706096,-0.1529736922577062,-0.08345010079202905,0.02263790882694517,0.07071124005093314,-0.17376058246743173,-0.06626254387363843,-0.2022659299411821,-0.0017560547612752858,0.08738007561087516,0.07604550620798148,0.12648118885762538,-0.038891497517318976,0.03157581309720604,-0.09349113297461914,0.1618485745437399,0.05250362643160918,0.1328400875697987,-0.07127710554409655,0.05205756802907658,-0.12083480661965817,0.020304270881569622,-0.006579947412273218,-0.06580613455123789,-0.05690422336767535,-0.1475515038836358,0.02193550266743316,-0.013769052753340755,-0.032843739887905066,0.06095644579370234,0.04763252787401583,0.0345110287318741,-0.10825522497419907,0.09344903091823924,0.10917637610114891,-0.3745954427882476,-0.1824117618115959,0.0964655092829799,-0.25475953437502563,0.07413006932132574,0.049313713701331835,-0.165154441275453,-0.06675665190938737,-0.3831308232746239,0.2757621811792367,-0.14180662036212055,-0.05447265045086447,-0.0048605701882253535,-0.01189513035265574
52,0.12220091757585762,0.14935586747625051,0.05556073078956036,0.12365754736019655,0.1706275721122854,0.11684078831390239,-0.06913951334603571,-0.07121732780155916,-0.0226186922465131,-0.15369518176321126,0.04370489681742328,0.08797628463860845,0.2162787637329455,0.06613065721138546,0.034389589506902504,-0.13330498691039744,-0.07980455490116993,-0.13710027262275923,-0.0012603045152424063,-0.22499441534650857,0.08072388642333227,-0.03808925128089113,-0.1711987250489946,0.016887638514755353,-0.09616575060496961,0.19641789256466094,0.03365342769874265,-0.09225303132429696,0.023568993545718453,-0.08924593465363381,-0.09434609732543989,0.029642925733380905,0.025271711769805402,0.014863784189958651,0.21470561859606088,0.04031522196174078,0.09446972774964453,-0.1735442356098484,-0.3031761325531601,0.09220036172730205,0.46977827886798035,0.031546188705263434,-0.21934999126732865,0.030406497194561427,-0.07513703787865943,0.20585957102776653,0.1439874234929037,0.11048807290882566,-0.14506582542278804,-0.01481114067629008,0.10638649281922227,0.07387744228607791,-0.03869365672191927,0.04743510758478267,-0.020966621038798122,-0.0016752017492419613,0.03822694736489349,0.03325968584906383,0.07609921652455046,-0.07073400018397578,0.05026568804052831,0.014246744159694513,-0.025955290600234937,-0.005436477884898688
53,0.1289676936406566,0.09655606107097807,0.16905503664569407,0.043327671163423856,0.1294027105464298,0.0035568374067705033,-0.09061915550215122,-0.0836486857937319,-0.1499926085938688,-0.1796098651476114,-0.16672501539105952,-0.06352386041961948,0.22690680536073018,0.04423919515649409,0.09941957695958915,0.0668952075200994,0.2122828228508858,0.06617579832181934,0.113320694036016,-0.11497192023199311,0.17582959980912913,0.050802447475303374,-0.29939479511494616,-0.14836486733879076,0.07960157975170978,0.19759291428177767,-0.22833140748785458,0.0722303967396416,-0.04876597536851518,0.011935324349458203,-0.3049601981320178,0.09823536738711958,0.15258398045748073,-0.12174269707655588,-0.22124778753789293,0.03254358577306549,0.10643613840579219,0.19580824473865432,0.071904126890943,-0.05312014250980069,-0.1917957394794102,-0.3242295402648227,0.11512319367195403,-0.03439992384631575,0.10125339751453295,-0.02763417261822723,-0.10235664788781092,0.0065640565857987415,-0.0008882389594068868,-0.00432735266083463,-0.014456173296109855,-0.0159687535900786,0.007233024251467629,-0.01224060984372161,0.025991775298407613,0.003172475830255206,-0.03554069875474007,-0.013696062633210701,0.03308906481608648,-0.020272759394763196,-0.008836907577181086,0.00807423865284454,0.019608807265014128,-0.012719131014655799
54,0.1295791839592498,0.0363080171536265,0.26017806430051643,6.51542190839861e-05,0.07035500723256426,-0.11921243647502168,-0.049426664465687525,0.051425886540370176,-0.15507443306428914,-0.022956103350996893,-0.10101767589688061,-0.22656054994716213,0.11645091033773061,0.04657465787073555,0.18797972184996498,0.10219832713153369,0.17337410932874203,0.12730775776947736,-0.001043487332752618,0.1302907322642213,-0.16534594905841912,-0.02869285518676845,-0.13486521708075244,-0.12298429976116147,0.32329037990293824,0.06943896176741213,-0.1266420744362022,0.07741588080845653,0.009628751995436613,0.2803327705751103,0.2620727355312025,0.11407569300576059,-0.15202196945350763,0.09775246038946447,0.05583775572229603,0.12919817717685753,0.04182736682150668,-0.19471232683734846,0.04435074389328927,0.0028509389541381547,0.04411003743353363,0.422369272151763,-0.027575121126055105,0.051216326887878444,-0.10774703872238026,-0.07507048692326582,0.15449940067605966,-0.012958437744542056,0.046053988350502215,0.032238654229185676,0.028564078810994695,0.015483444973490794,0.013984539887924863,0.017177737164278728,-0.015441087386108329,-0.015867654108473923,0.01788101900033695,-0.003593336168673411,-0.02565452726663922,0.018246136958806558,0.00039517534547617306,0.012895399926900714,0.005009809638999718,0.005646658615793637
55,0.12918560316388214,-0.008411836309960292,0.22987691898560625,0.03295195622981529,0.014904927939297636,-0.2268615038127881,-0.14702383524481083,0.20298122354544548,-0.020340532786998378,0.28018890771566496,0.10555417675761218,-0.1920066084420835,-0.02305754913755727,0.007970205176754341,0.025275703502289804,-0.2075458005392619,-0.13033220542656382,-0.035965292632615026,-0.19601192224988614,-0.02936647782063014,-0.15637982894052108,0.04984246099374458,-0.09980501061855933,-0.06044166114974575,-0.2069527058731572,0.14820116540365766,-0.2146114254833397,0.03866428804448274,-0.10078838568280192,0.127352446262989,-0.009025884792096088,-0.05174484851855103,-0.21523576311159645,-0.035645476998498904,0.013961419616868725,-0.3554990964208483,-0.3804788781045071,-0.013303266799296776,0.012737340479941371,-0.008632395010741131,0.04819835610202805,-0.21404819377728534,-0.018088761078368085,0.012078536043742802,0.019239624688498158,0.11261317901207771,-0.0986309773347461,0.02491976724628256,-0.02410747463044771,-0.07676320503315956,-0.0381477013260811,0.03561421031524374,-0.04412891647031776,-0.013809270608168417,0.006738787841590432,0.022760523085610357,0.01719896543030834,0.0068212711128856005,0.012303917626217103,0.007999147144250582,-0.0001674851561960511,-0.00931062862753395,-0.003206971060650654,0.007304273403973299
56,0.10753224917844059,0.1798980247220629,-0.16412384511973438,0.039579765609332976,-0.002941891322647867,-0.21609073929124828,0.2537911570855746,0.0613797233348328,0.040642882574956386,0.08830513385800506,-0.3338692935490925,-0.048767730433144335,-0.09467300072197171,-0.04707568772710992,0.03699450428625302,0.05680216022368359,0.17434305216991935,-0.2236171758394996,-0.03168236982953008,-0.21593997811082233,-0.04291165720000292,0.03163604061889819,0.02805798535449977,0.05727833702973889,-0.08761944309511459,0.3488962303398609,0.26590020944377357,-0.12305574630152967,-0.02506938179381571,0.04369527918453925,0.10931053587539875,0.15347712385520312,0.1369342896432945,-0.08271056476710062,0.24763240056960292,0.02701029953850448,-0.035877703641381375,-0.1345853948039052,0.23608524706987127,0.09685065791514419,-0.09859454377234458,-0.024818844984555846,0.11843772064745924,0.054244004320045766,-0.04797136943245851,0.01929243525322883,-0.17362984139168136,0.16040146087290172,0.07952119842447648,0.030444266620793387,-0.048476468319688305,0.017007255231131148,-0.0017505821612870676,0.10628720472362173,-0.06323917336766077,0.02633945815498738,0.024043604687910926,-0.009161067967709834,-0.009140858036028952,0.011124682804296737,-0.017512688292281114,-0.002983659441891537,0.0006670596280513863,0.01721673426548225
57,0.10539653707420196,0.1896361721085704,-0.15428823294938104,0.1380884313403858,0.07548591182791564,-0.1227299103428873,0.26661397161252814,0.08814443540835908,0.09478707951097119,0.1363493171542479,-0.1702081306417324,-0.061731400563985975,-0.13795037932484683,-0.03279183896439322,-0.0191085371390841,0.005688771605756486,0.15784295858707767,0.24537624819581158,-0.04870637579884261,-0.07373097916628987,0.10690390385427832,-0.1004486643990267,0.16161274803324566,-0.02849910420833489,0.1264410195298158,0.136041368553667,-0.0303837390957587,0.017145899636474282,0.07316571219931481,-0.039046810191683864,-0.29181195238545515,-0.21789562497628664,-0.2450591686695956,0.04961690268109958,-0.08796008802898542,-0.04285645864771462,0.02530186411027927,0.064578809546284,-0.04086529768941246,-0.024142734638602628,0.21724594199396474,-0.0036559462661391318,-0.16604029358920108,-0.06066986147553159,-0.05327604992289177,-0.08791575258656789,0.14727519640179465,-0.2920078432141718,-0.041503698938730335,0.14060216911526838,-0.2463576111244733,-0.15048965070615505,0.020851509748541774,-0.16271997913148764,0.01575698919949825,-0.0077405087071577144,-0.0023629961662601333,0.022695858656890916,0.04882279787463284,-0.018250016071551856,0.04765035133524463,0.012200535367620662,-0.007651465552861621,-0.008571347626298315
58,0.10863338309945919,0.18548121115051683,-0.10731769871281213,0.2026038309666157,0.15715436539880773,-0.032584742661267624,0.186046144322944,0.05740464358968315,0.08914497706687763,0.06453088573526196,0.045686306970578246,0.01985560717052352,-0.1072889920584888,-0.029079383198181506,-0.05852235007087722,-0.059796334448890084,-0.0016908577972565132,0.36197062526574364,-0.10306594885334504,0.015552458596982293,0.02856847862646406,-0.042472209087341485,0.05078978394272547,-0.03624178423635438,0.12591818009067104,-0.10967422555999234,-0.07623894905131959,0.06149894440135942,-0.04997339116583349,0.04201505249409532,0.06333002154007683,0.007757072192600641,0.015888916411428006,0.038796666439314495,0.05904930444094522,0.12361393037610109,-0.01061899607101148,0.09519837022431023,-0.05134127924469234,0.010099487583130104,-0.12390043727108684,-0.0962597904515744,-0.00035634652613625306,-0.02061143540609643,0.14869005790672896,0.22340311459389306,0.15772728754327986,0.444040305253912,-0.029970540502238116,-0.29368759396903,0.30388325218952356,-0.18085760536697656,-0.06276609350590247,0.05972877781317701,0.0669252035784753,-0.0021272776767175886,-0.048034938435365944,-0.03259453878436652,-0.13680526046752403,0.055661141069550515,-0.08300878936384898,-0.03954578198978438,-0.003950557292987142,-0.0008326942057430395
59,0.11304583388890369,0.17138952968468554,-0.0549001438614636,0.22391008388193126,0.21241062474579867,-0.0023764896216683035,0.07376525925071899,-0.016215567778815054,0.036044491927300755,-0.05694595030219779,0.16476400178211137,0.13843712787315363,-0.0486760689272046,-0.0009146495400551437,-0.08360983763462822,-0.07712691373401254,-0.04811389264056741,0.24268800051895925,-0.14620147231357317,0.0035781154066375034,0.02449018371747508,0.09974318840108512,-0.010758643077603089,-0.0021652221290487383,-0.1273216382039845,-0.160394058683065,-0.038119900381304916,-0.013754382880633048,-0.07529588939917589,0.1638105528450604,0.17549278916290603,0.12941806929596014,-0.0568042004147991,0.08393500227232294,-0.06611830222469453,0.2169647045262463,0.04518384165615019,-0.04445808614085734,0.027955510780086335,-0.043079019173519306,0.03921218691413948,-0.17551418952275516,0.13621558222743485,0.05845841456882732,-0.04864571965263624,-0.08404714283740636,-0.13094474221082014,-0.06881528291142408,0.08300708302427717,0.25558857083619235,-0.14878298108403468,0.5481657797438749,0.033489461583394955,0.03194531128401032,-0.10225719208518455,-0.01916828013158471,-0.01718060734717186,0.010761177329711602,0.07540543687022713,-0.02457648440051116,0.031023911539019164,0.026277627695036762,0.025298581648766888,0.002973329879674566
60,0.12189351462384346,0.13460414986291178,0.03762379887357764,0.1828243221058375,0.22900800244304853,-0.021257604593577412,-0.08139625013121811,-0.10955387050721044,-0.09910351020998713,-0.22460857269152523,0.1154292417919352,0.21450770008466163,-0.14347816128889035,-0.09904616301269717,-0.116080691093554,0.029634610056486727,0.042804318042945114,-0.07093671418363091,-0.13076070691592714,-0.02496035689290166,-0.08184942204355225,0.13445703215052082,-0.009990719438060514,0.018025985611312495,-0.23115770678797706,-0.0871956604207961,0.006524298755096594,0.007440364898818927,-0.060749230396680766,0.14323867065262927,0.017394657131328067,0.053654276257971624,-0.010504415462563588,-0.0034776277979373382,-0.07604555881721874,-0.016472926566541233,-0.020243775396153137,-0.10020475712509187,0.2058880367321529,0.09254088051994999,0.03378391118372919,0.07888533661483803,-0.018445849981964996,-0.047139893519657736,-0.1201911761677312,-0.24352580100520166,-0.13421697546625722,-0.2772803144782764,-0.06382829809301754,-0.16077052872144007,0.2121102290086201,-0.4693858226638758,0.011056520724505886,0.011842023174831351,0.0570058190469266,0.027041229714319562,0.07251813291867057,0.031223091295522476,0.06251595473507535,-0.0005040012105509972,0.0239397632436643,-0.021740199541792515,-0.01663531793813612,0.02982748385375235
61,0.12768470562317508,0.08286776693629244,0.1295500817451977,0.13198073452833656,0.1849225499276679,-0.09510748610702044,-0.19620445151698068,-0.12791576344366828,-0.20687736842493196,-0.2281503588723956,-0.042249450922962596,0.14286691256179515,-0.18461895191538985,-0.17673644029924135,-0.08001996174898703,0.20443456148189731,0.17273382332959442,-0.17840051050698782,0.055384415797129036,0.07245211237124122,-0.045463309852334516,0.037113810642219434,0.28386805257415926,0.09664416870435222,-0.07136443388238932,-0.03938340254338535,-0.033938864414282566,0.03039605954241607,0.011334258547907872,-0.08745475538522379,-0.1863548446012038,-0.15167540513547423,-0.06508836474408851,-0.06048916257063963,-0.0041190560811003845,-0.17637179318754706,-0.148299096211442,0.08186930887572708,0.01651978146894481,-0.060940792186575936,-0.0949511462693954,0.2518169813136947,-0.013101600552106185,0.016964142071774074,0.0921427243537836,0.187553537787161,0.18160762703700845,0.22258560061180296,0.10111557555558748,0.03126858196132698,-0.15433729594216258,0.24073017698712834,-0.029434805769660483,-0.00840235003844226,-0.046411739278162056,-0.015648979726204146,-0.04179739787001789,-0.031694629189427184,-0.06979075026715088,0.010187977268516696,-0.02808494892258384,0.014256347524267632,0.0014170472051823757,-0.02403823265162941
62,0.13079189743289418,0.02286933499869851,0.19971892219416848,0.09169623530813453,0.09444193759962814,-0.20196515127693693,-0.24353862008973007,0.011320505303646896,-0.16970018100860992,0.03638735664325643,-0.12258883758516513,-0.03836041675705135,-0.21590618223493394,-0.06577819117058663,-0.026257223134995105,0.13359022781596652,-0.08156544915064633,-0.07577928988074285,0.11061160028560528,0.13639522644546026,-0.009623544520568447,-0.2072496744574542,0.135094843302623,0.057350135842315936,0.2922985281575503,-0.06816740599228899,0.0630358124877797,-0.06293923949878151,0.1514696512779723,-0.19910795971211886,0.2583997746774226,-0.06249054580983576,0.04220024905250848,0.08369232162891868,0.198373509801115,0.08968149891122679,0.07139482734319595,0.03897084239057552,-0.19010493204713713,0.03855736887060175,0.08075923314524114,-0.42053731435510056,-0.012770448506174148,-0.049627144141554724,0.03703074533044043,-0.07590991042208738,-0.21742115512302912,-0.0877130759546085,-0.08400093631320044,0.03658333329211383,0.0658029114731197,-0.04416800874016433,0.01891441623048819,-0.010684868125672202,0.02122918091217428,0.014011312889794375,-0.000370745456549193,0.03935912268403885,0.05143865262573552,-0.019347603192667748,0.015926445243854337,-0.014866903099809897,-0.01119273835421679,0.015492074000224256
63,0.12914745749336862,-0.01942248545257917,0.1740409578588253,0.11752946605320622,-0.0018992646169432687,-0.23820366199327797,-0.2732938477134687,0.11877028262678717,-0.009027440165850715,0.3198912088596649,-0.10600472507045756,-0.03777990711236661,-0.18105780742313532,0.036582524815824406,-0.15651918701611267,-0.06727824000112682,-0.3562010124880415,0.05633431275422033,0.11310990684326071,-0.05352893310632367,0.330885643604096,-0.013134276575158896,-0.16151372345088144,-0.01548871619412967,-0.1229180777717551,-0.0683368584668258,0.22644094983653756,-0.09367202409138226,-0.047080668285153324,-0.015697514005479918,-0.1715579008991694,0.07409028600757007,0.11463450120377705,-0.0487190693674842,-0.16257472929171804,0.1678766031477555,0.17868654041425158,-0.03060649948732798,0.08427939125118547,-0.0287657383212106,-0.0678214836522457,0.25789342808827875,0.02585603033314763,0.03863861206255852,-0.04032242246138212,-0.014956575236565017,0.1550596332897782,0.013900656961330304,0.046260752019211204,0.01538106145588724,-0.017400407445525214,-0.02508589448392974,0.01272014632616053,0.021273883499699192,-0.003726834069765983,-0.007059203575435019,-0.005078062065411615,-0.025917848060660553,-0.026688445038908687,0.004898043178464734,-0.0005464753473490569,0.010177758544639967,0.007280872844852571,-0.017644088031918317
