,0,1,2,3,4,5,6,7,8,9,10,11,12,13,14,15,16,17,18,19,20,21,22,23,24,25,26,27,28,29,30,31,32,33,34,35,36,37,38,39,40,41,42,43,44,45,46,47,48,49,50,51,52,53,54,55,56,57,58,59,60,61,62,63
0,0.13743693092594325,-0.07678371472219131,-0.10389461919511928,-0.04308930330952786,0.008068041921826608,-0.163439371348761,-0.024661450487832342,0.08303211007742614,-0.11524283488525061,-0.07009010151751179,-0.1322454208122488,0.08950667826440893,0.17073231468036915,-0.0914686030380138,-0.35068300204479186,0.1323531480751595,-0.1566526513817926,-0.02673030355450492,0.00153611888313448,-0.028758542346552222,0.07894285445089161,0.13935612027077396,0.027616695729943897,-0.21271275067900777,-0.04566522592563611,-0.029699263741149503,-0.08890725798862159,-0.20827571078683174,-0.17585015590533273,-0.2017345255617801,0.15577326839660136,-0.1714516894965606,-0.02908243419123366,0.10294786457400588,0.3502140190100919,0.1583668506410394,-0.00658877647295115,0.08646975963655373,0.02549561198855242,-0.022744784505562065,-0.1312746659958489,-0.004985464812142926,-0.0899328279173474,-0.2595323591398119,-0.037133668048483774,-0.1046528164375077,-0.2762251630286603,0.020811917483123554,-0.062090320079637,-0.059273468269191706,0.023206180847754988,0.012340580526104714,0.1060730534350667,0.13953664714926312,-0.060536121305340196,-0.12060691036572703,-0.12338985016530175,0.029753502828787914,-0.03403771298034223,-0.06473018355970112,0.027939869550976035,0.007767598130151621,0.010568737792701852,0.01639535119342088
1,0.1397142563313335,-0.08335243813363025,-0.06610520095523224,-0.03989113292592948,0.005927876211758852,-0.1996092479152906,0.08094760174075001,0.041918873639846095,-0.07864505859074386,-0.01875853865595976,-0.0740125322197405,0.1230317418378888,0.18990772091335295,-0.04259509336036181,-0.1490802669253977,-0.0409376882468799,-0.18707797671016124,-0.02877565698639613,0.05176039210680372,0.1474096354065627,-0.1576674479832053,0.030991458960453803,0.0688456819551081,-0.05144931626016547,-0.2188803819367178,0.1469759416696541,-0.0851762028436072,0.00013493711138656828,-0.2232356904430074,-0.09804964377253243,0.009714703041791287,0.0573597404176314,0.09217389519353089,-0.06671841534668302,-0.07625468177377756,-0.22097139396859192,0.031679651333017346,-0.025414435111254477,0.0006732383093762556,-0.06363999108913251,0.06355947049731327,0.07868080969173025,0.14401869170469442,0.10223698733171886,0.31575578070943555,0.11642139898862168,-0.046820446009743936,0.1219751912828801,0.2079702409050102,0.04858854479575192,-0.02778549771987658,-0.1492095035643132,-0.1276980407944691,-0.20990319394474966,0.07049148266314528,0.13327351861178907,0.3773507768025885,-0.08108283724770808,0.09093819491672295,0.18420335029719725,-0.062465011802991736,-0.06541975927648698,-0.011563875726473319,-0.03379345657896459
2,0.13493742900601438,-0.08059514851219096,-0.040951091829461606,-0.07699076318494358,0.017902743408059585,-0.22866683438179403,0.19100508316857412,0.038874320208602875,0.004332167260659277,0.08003374367368737,0.0010543439318879758,0.1494381957030426,0.18866127861332754,0.04249597801499051,0.11043863455190994,-0.15915384164440946,-0.16594886588952582,-0.11130533184822823,0.05617280436468693,0.13419658611092186,-0.227133193359163,-0.00012201657540175312,0.1456217712549613,-0.05056207639195166,-0.1686068137191599,0.13908186399355832,-0.05820989255686962,0.11083466796633418,-0.011021468883282929,0.008985242986396018,-0.08877000674084218,-0.030897017802041418,0.08884597970633344,-0.069776625582472,-0.2378275870780664,-0.16182610771686978,0.04736774696377953,0.0317292008612448,-0.06273729960381502,0.07970294811862828,-0.09954963010982223,-0.043681833099528444,0.0033760559074612513,-0.061470616979248716,-0.01519341131171406,-0.05024564020894562,0.213941487002633,-0.09873306769924692,-0.11513020377368774,-0.05474573410879249,-0.04386105742514922,0.22167705791734235,0.08665652278498932,0.05498244745093462,-0.017016930720988997,0.05712907264528053,-0.43959814915678336,0.037523693495737157,-0.0710344413752287,-0.289821456461763,0.055918479598687475,0.10748594903063512,0.004053214534713846,0.04184231184302616
3,0.13411904166466457,-0.08161999860656177,-0.01922038768967671,-0.10230382428376046,0.023108138573421512,-0.18407368977361666,0.24495405498517203,0.03320482025307228,0.05015578779091667,0.1299585353053762,0.05980419803095144,0.09345077170162325,0.10327793789650941,0.08527115025357399,0.2523679207907645,-0.19917552786353548,-0.1253828942316046,-0.14719162146367146,-0.016723617573236108,-0.05053342624969577,-0.005376392480186709,0.026148986036151588,0.16858893142208506,-0.0777043047277951,0.08279731706970325,-0.06094942175462325,0.03275543927114407,0.07533761411231808,0.21985726516360876,0.09822460696237828,-0.05402096952514779,-0.05761016775651402,-0.06445062745185,0.07546231868728706,0.03231830389438255,0.1087313975114253,-0.012606876380850954,0.056481198688319585,-0.026764820520796644,0.06431108872065025,-0.18680579460177896,-0.1035723970001739,-0.059019661044700356,-0.007281251108519751,-0.2800358350615705,-0.02017550514106843,-0.10149434177373062,-0.025753546424181973,-0.09996023320659621,0.01636469691683675,-0.05183394227927211,0.10331929742602096,0.06114539778199188,0.12101475380463886,-0.06853746898968596,-0.17008422405881193,0.41655659406712525,0.01205377624194549,0.06588651824712052,0.29810375657451343,-0.11446436434910268,-0.18136403853013727,0.025055016513414154,-0.007282761355323544
4,0.13768922322626825,-0.08134116088230507,-0.009122798759425454,-0.11834802819177517,0.02492508135668744,-0.1216453820244573,0.23727903533369007,0.0020796086012725146,0.003235911658619889,0.0638503864855291,0.07681662488911656,0.0169817238381684,-0.03069194618158616,0.04577724122276315,0.1634663787842891,-0.1507475880010207,-0.15526473842609337,-0.12317665931427701,-0.07008054524265415,-0.14788123161858555,0.16985079825565869,0.014177746058182375,0.025231653016780476,-0.04693193252158177,0.21528047168124162,-0.17423445507478835,0.058057953493150224,-0.0206295089647306,0.16827013923456272,0.11073106528178533,0.07708053774484458,0.11644616826920295,-0.10689361231160961,0.024313048992135662,0.25463734970505886,-0.0713036393752492,-0.05936939335870651,0.08512923457349518,0.08065143379364177,-0.08960273004151406,-0.012712802063523557,0.13412064963754072,0.1076009427683579,0.07616160096623653,0.0897197740256366,0.04905642428766381,-0.10653472302433745,0.10149463705464742,0.13678606974409147,0.042404258000834985,0.09155221104277501,-0.29351734572723287,-0.14293968980538987,-0.20198698538336146,0.08534142182011639,0.029029000702571105,-0.2473792946123225,-0.17786536242416653,-0.04260419018099394,-0.11092321464465756,0.11669200409360317,0.23658669494301723,-0.22679300355343612,0.008150309567983365
5,0.1401818825212048,-0.07961207312123883,-0.0033004579086511887,-0.1487009620204598,0.03521220679968473,-0.06958320818792363,0.19763934426967733,-0.037305080108320184,-0.02385612120852157,-0.04082659434853149,0.07169114334795398,-0.10192103956386907,-0.20169753220080816,-0.024497070835611964,-0.001081980057287213,-0.04814898357715233,-0.15577897729813717,-0.05992224003822405,-0.05954790675872559,-0.05085318206633308,0.10804831730209102,-0.052676201232147904,-0.1219343925796003,0.06274227365138901,0.12592205801505046,-0.12357624876990986,0.01486102921240457,-0.11760975718931649,-0.06169979213797305,-0.06044114809819614,0.0274812430599517,0.135323951086902,-0.04741506160563283,-0.03820645164101284,-0.009970856529343444,-0.14119843965019935,-0.04589588879090166,0.021551987687657044,0.06827968397163953,-0.05992277653076712,0.155694015280153,0.11126943638831219,-0.020318761326051225,-0.1451722160981591,0.07050068798549158,-0.04563604523007393,0.08923773915478653,-0.05420568929963757,0.006883760527485454,-0.018904506091132235,0.04159336402858641,-0.01524224789754657,-0.02598324451020246,0.07686649245217625,-0.022701573997053852,0.18587064244892534,-0.12066766300369915,0.26150549907413045,0.0871187477007039,0.07852302811939516,-0.05122407501976002,-0.2574466392509852,0.6198126146125282,0.024879621543647215
6,0.13912415957608043,-0.07439909415452456,-0.003087378869587737,-0.16387521149255946,0.05116288090482386,-0.03847925858528485,0.16513526558576797,-0.05434771635093538,-0.0539716634222642,-0.1063178460550609,0.061566822933599885,-0.15418068087882925,-0.26485686784183393,-0.04782975915184382,-0.09500654346634313,-0.0026952164890078206,-0.14995878415060895,-0.02191808136137783,-0.03739475364925751,0.0026070331213155044,0.0020100447487481077,-0.0825250721713387,-0.16450807116827762,0.11488255382070184,0.051073953764267994,-0.042587338548536205,-0.026328333198034466,-0.05202544887368042,-0.06188021686417455,-0.08960020876965383,0.024395702716697575,0.011651253029057552,-0.006036592116284141,-0.03753081463274629,-0.02502205508971546,-0.2031243457301571,-0.02725991359604373,-0.08601276463060752,-0.014623374392859597,0.017846906713984246,0.1838574611359714,-0.0690793036126619,-0.12730113902034446,-0.12311491701989437,0.027906667864135055,-0.08632440693525414,0.13683021187585115,-0.09985423183313827,-0.06084654218382987,-0.005269341674370792,0.03914521315711261,0.07630033210381312,0.11156571202089327,0.22427704037876145,-0.051991501636044636,0.010922101619149943,0.33703825353411,0.18857741927688945,-0.15033388275905352,-0.11946877660265284,0.008950746591396226,0.19065524228971598,-0.4907348536853396,-0.003914395591275252
7,0.13677368867499934,-0.06943677760376378,-2.3212782159748313e-05,-0.1846242026012176,0.06667905875095353,0.00816833302908726,0.12657743066754826,-0.050902532053356125,-0.0852640680054631,-0.14578648994702492,0.030370721484332674,-0.18238226979789918,-0.24912904026119728,-0.050067143146922545,-0.17609483186348512,0.0466732694508817,-0.10254752290983157,0.01710534822665029,0.0004213219162693476,0.05043999516878844,-0.16624076422903664,-0.1039477966313649,-0.18571663156638607,0.17185771991984555,-0.0461013799433492,0.13049798893913495,-0.03152235717477334,0.1159501411661579,0.10098633021619388,0.026154756947566513,-0.006756442510850266,-0.21718094024097184,0.04813534032592913,0.04858252476384667,0.10259497754915556,-0.0641407285070587,0.014480609038092208,-0.16887453106353878,-0.17643035300603124,0.13294417225644425,-0.041174288401364126,-0.3525975939927498,-0.11554063509297023,0.14227903956469548,-0.12743435611268805,0.08455378705347937,-0.14043142709912815,0.08366996405067056,-0.023426359957039324,-0.05159704700622148,-0.057897854160266674,-0.014876976742721157,-0.01052885358997624,-0.21332605307978098,0.08792595717061387,-0.134016017239027,-0.16631861882985924,-0.3241680401192226,0.08506771199356714,0.07570095105337285,0.028763247670864644,-0.05614171921710104,0.12718357285296547,-0.02734101016835386
8,0.1349117186653278,-0.08704009795240626,-0.07026302327939998,0.05445427721398599,-0.021689367967282575,-0.19504179392708648,-0.12992545304412362,0.03321559612079483,-0.17440154504981611,-0.13035766454293823,-0.08783793442703636,0.08693059747440354,0.1799979422712138,-0.05265768759345739,-0.29240752932327163,0.1278962222333917,-0.05116973729947525,0.02438524630500054,-0.07274522170396415,-0.15335855489542347,0.2597974562940185,0.023914856091574233,0.08678421629677854,0.0019798498417276378,0.20109869258466045,-0.13626940657223818,0.12934901260030873,-0.04970021495246854,0.16950659112910074,0.07053628033281835,0.020720712819740847,-0.10102237971747148,0.07515522517686934,0.0024320187390274584,-0.05497052833731164,0.08455182151359858,0.007042224352683869,-0.055754119835470184,-0.07489026467809991,0.03816752898385464,0.03290715386391381,-0.09925606273896624,0.03220198791948703,0.23759139832531925,-0.15048799955259934,-0.03802483476738415,0.47672468034272486,-0.16701508494807132,-0.00186437012879382,0.04555414093608093,0.0007589665413852906,0.0954782694040076,-0.020794655755959277,-0.18007679319419728,0.10447773713368617,0.19404121944768937,0.04063438008580314,-0.010349429904568455,0.04560842186364549,0.028629075881120805,-0.08209743848925755,0.034056166885020264,-0.005609010511853564,-0.03157765097663535
9,0.1401047186424092,-0.10436084073948074,-0.01501190201539784,0.06829876200734941,-0.033937015107205704,-0.20576600713962148,-0.0446915938438851,0.016481213854141863,-0.06296220924755756,-0.045168217662523685,-0.05169809793341612,0.06185031984398029,0.14967533009440626,-0.02468474359338442,-0.14962830522847725,0.059079460286226904,0.03418611207881289,0.0757668439226398,0.01187570630250572,0.052547599072213236,-0.025875281245269877,-0.05375896935654711,-0.08553894110176029,0.1432058981429579,0.0006677164655048695,-0.004592888056758598,0.039443179899593374,0.09440511078802101,0.04045894283791922,0.0880853694894258,-0.04253201459595837,0.19671145040325272,-0.06008237489951851,-0.05557224545903818,-0.09331299545118604,-0.022941143497745384,-0.0464099086021918,-0.06072124834787933,0.08327085125472519,-0.04334491164067948,0.31047865129172786,0.14387267011548024,0.013505231189750184,0.21634354905014114,-0.21796515701245894,0.1168790623389926,-0.08761389747363114,0.09613857276810714,-0.007560434896196684,0.10144865456462873,-0.04720993755195977,-0.04346235107827548,-0.19587105876009037,0.11770241853315375,-0.2379207640349305,-0.44253104723200437,-0.10309339106185997,0.12196979693359092,-0.26597208705699243,0.01455096018105298,0.18834757594928464,-0.1634616834586785,-0.006939335892434822,0.0725659836551483
10,0.1398906771525945,-0.10712161434751324,0.015557684955292571,0.030481935964932802,-0.022497471085396015,-0.1920334699031626,0.0688968467437254,0.02571600882931796,0.1140382467002842,0.11102201374850135,-0.013859989507527731,0.060636008074894,0.13764361374580247,0.013912707930853297,0.030885073855637185,0.05193546265282656,0.17967608112686123,0.06716147995512783,0.05799406954017395,0.08526577024217398,-0.11183372654464412,-0.0880570740472364,-0.18139131387214397,0.13486257178758398,-0.050387877948575736,0.07376547109758759,-0.030536714253141677,0.07746418333991817,0.0023197817835838574,0.03447601957086823,-0.014659389799273455,0.01036596476703315,-0.04008877675360052,0.053590804891379976,0.06083320271656506,0.25221257205619435,-0.010720452151901762,-0.07983808266123918,0.0414143835391635,-0.037211866838238496,0.2815794109869459,0.06384852647221839,-0.08800048771317177,0.030694337631839205,-0.07035330506659175,-0.008093330042951045,0.029163206054434523,-0.011658378886561384,-0.025089159264443564,0.03523683692878953,0.17987326146887936,-0.25730938884075116,0.2597616363628987,0.17839552063401526,0.06374590168876113,0.033652394792178755,-0.00835778204448305,-0.009662469711230342,0.48440960100393876,-0.04025101225768591,-0.1471567244048604,0.3019745231792336,0.05787370334439389,-0.028342039574608475
11,0.1396395713608561,-0.10767231245663207,0.030131457005155207,-0.0004531997252914463,-0.014352988967061164,-0.143304407589518,0.1257933445552175,0.028173443942604633,0.16238008592037492,0.16313086703387036,0.02788318661230052,0.039969412363503015,0.08446694866996057,0.020056547493400634,0.11417202107832246,0.05840499937826649,0.2500636363517698,0.05602663586581877,0.03453678945172246,0.016981303047483,0.013591360787281986,-0.07058504249553199,-0.13329332878764488,0.06513988830105624,-0.008548700776363594,0.06553650557780472,-0.01364924021567154,-0.0257094020791382,-0.07132783507622929,-0.024129378862452984,-0.025477552137957105,-0.09153449877703367,0.042610464610274644,0.027218673718254184,0.038931720872922876,0.2954364573268455,0.0557738023332692,-0.14274420186276152,-0.04486863146533255,0.06772312651897965,0.038881315107927625,-0.09298898564894785,-0.10337612046454189,-0.17082962991178746,0.1101430626092875,-0.08580941486257478,0.09270004881551573,-0.07038310114872802,0.06385433996660811,-0.1096868072143244,0.14382999058994198,-0.16740419562385264,-0.07166057270095676,-0.05795694296635291,0.13809564604369634,0.2152674486582858,-0.017636890164416413,-0.08839514749755531,-0.523647176735508,0.08200798912200769,0.049441230678192345,-0.30356541991221647,-0.06844979886027906,-0.07406869158100825
12,0.1414466113235428,-0.10602017963458024,0.0320847233535559,-0.03750204657070841,-0.003945611469895499,-0.06651343459313841,0.1610907872984314,0.01866962714410314,0.0993213712018926,0.12010925819616511,0.06374332334987132,-0.00943883575928172,-0.027383892909716434,0.039052068793126116,0.12863799352770897,0.049836132728962826,0.19656624212209428,0.06875552152396877,-0.007223541032972406,-0.10845021201815983,0.19194602085078466,0.03393839208026839,-0.011385811745427177,-0.04256803487215555,0.031431225875539946,-0.03284079475287852,-0.009386038287793122,-0.18867850929119917,-0.16011841017778516,-0.11069983564968723,0.02773044505015981,-0.05742259486837735,0.08410925246635535,-0.0024342874651663154,-0.11735824755185986,0.2108336313320437,0.06899665105711955,-0.15923483398989413,-0.08253176257983032,0.05619205779118498,-0.008615857327467669,-0.14885653491842282,0.008438329421227964,0.19710414440667876,0.14226282237272975,0.11437022482900289,-0.18198132259243016,0.08681183209150674,0.036314220494927156,-0.06049254819849912,-0.2102020919825287,0.28587305461605,-0.1791898767016129,-0.15933991755099763,-0.0668196573413972,-0.07178084761286616,0.15165345501689143,0.2153164598380107,0.07701160479945629,-0.2374763888848825,0.18220455326791654,0.284123752891192,0.160474651089106,0.03345743266064889
13,0.14384013225246048,-0.10347648323948916,0.038527991206408055,-0.06581610813770873,0.005244907923961317,0.011558028351727607,0.14555935952672786,-0.003662672446713866,0.0075913135243412255,0.011562612280748175,0.058236733091324724,-0.05149417754963939,-0.1303835608174876,0.0054426035908437965,0.01854183014865296,0.08196818070933869,0.11331701844836604,0.09703056881282018,-0.033466890717811545,-0.06890377801018073,0.15976639162414719,0.06250059057337681,0.05348301212829807,-0.05189985847899406,0.009409070318917807,-0.05505579127467064,0.004224846404703872,-0.15968762680885065,-0.192867414700869,-0.10718950288959514,-0.01106946041821997,0.09155987976915589,0.07324908096799158,-0.048939958151667205,-0.26570977741931057,0.08370707766203142,0.033017564809749794,0.03501403919748355,0.04844420883570947,-0.07931652747386751,0.004234599931440472,0.10105894607171237,0.09215719747866544,0.07286225924443027,0.0669061629275865,0.04680834174339408,-0.019732345472130652,0.036129490386063265,-0.08525599431138854,-0.026825213934168358,-0.07723719274892418,0.11329158869141008,0.13170398462159355,-0.013754923512381959,-0.011815761022644103,-0.14821590984465327,-0.2972253652452954,-0.16163702528320223,0.24134989871661588,0.1430567239623815,-0.3259385415081778,-0.3521379098718488,-0.37147496351924514,-0.07478828282357133
14,0.14256898479067515,-0.09035802851015864,0.038026774834397675,-0.10411707696935607,0.027250390103301613,0.07785691066676598,0.13778967228350159,-0.01977147837516781,-0.0955358534597211,-0.09375093603801696,0.046351373842295374,-0.08046401279647236,-0.16312313948663829,-0.03415073015511927,-0.06985324951705518,0.0969488390301774,0.058799446409224604,0.12538253585804712,-0.01081566826497547,0.0015881479996636555,0.017412336479675133,0.04574407462842561,0.1175462624545384,-0.028423323666849062,-0.0742555006746726,0.04512478129659117,-0.039376619009889605,0.04426898871578448,-0.0898910804702032,0.006883604307914598,-0.08316307487068239,0.11982693942592468,0.0012251310984771075,0.006663580499160639,-0.17542684458745986,0.21033997832729975,0.0017317354956594487,0.20665498325375842,0.12750688113189537,-0.05374003400238345,-0.112010283063137,0.2674710192357758,0.08589836666149682,-0.1049674152605198,-0.07596747971838574,-0.08765737098970146,0.17656465095805132,-0.05940816317648413,-0.02294857754614029,0.12660282995652902,-0.019086141977736906,0.016957478710303172,0.12687739130116213,0.027989248848678015,0.010078328084411989,-0.10901384557241911,0.2028387360152536,-0.47126910905354885,-0.16331579854704836,-0.024158787858888114,0.23377163890408736,0.2247700526064677,0.2410832507596315,-0.01570166413515177
15,0.14039227539798174,-0.07890477265752703,0.033304771440579924,-0.13379069056572182,0.050604871787582335,0.09085199136686746,0.11895510087662232,-0.029662259927360456,-0.13368762996828362,-0.13387436941714637,0.027475736134541573,-0.09858757599704615,-0.15320008642671767,-0.030958756510839493,-0.12434046590299616,0.10163612533242464,0.05779625672348078,0.1297711252818245,0.005613157341551697,0.06859061132083351,-0.14048793560800302,0.028876616267281774,0.10476039188175114,0.019093758002188876,-0.11706668976805974,0.12386812992002706,-0.013463750574685815,0.24162896736295134,0.12275674266280175,0.16536103841925975,-0.08741858939200639,-0.06685354544927832,0.001654115088252802,0.09808308396016027,0.05700074335692937,0.31478358952992613,0.026789898809324277,0.19199723383181466,0.05799057799453594,0.010099216432357326,-0.27277317948119395,0.10276160664003772,0.12460730845222615,0.06770817150256359,0.006517007851582282,0.05552408113328616,-0.020867816663420552,0.022584537008123184,0.11971078012075625,0.08307878395837312,0.01921344683208038,-0.09803867265100723,-0.17266303875146508,-0.010484612651179155,-0.06959896903156237,0.17986680323936577,-0.04708363170294316,0.4819099752468832,0.03136329225230899,-0.07706716529235089,-0.11003962875774198,-0.06322222284419883,-0.12384693949211428,0.02118680358576122
16,0.13055186904040594,-0.1021509162900265,-0.01472637539841269,0.13248936533321062,-0.05237954484937381,-0.18138999139943313,-0.21071032334723075,-0.04187532665491721,-0.20394692021633298,-0.18720494290571085,0.014773046733214001,-0.006317955431713929,0.035194210227004585,0.056176768985203795,0.04174698802861471,-0.017589266379995847,0.06718481761020545,0.04613474907949455,-0.08761156521072586,-0.14815245227734689,0.18516159393637527,-0.08870825087118367,0.05178562329133973,0.16218008968837277,0.058201201482946496,-0.0048000391667124,0.1076727318056699,0.13058329993282747,0.18462107403216493,0.1049116062929729,-0.07626883629294968,-0.009185058069422089,0.14969034193724828,-0.04814289908320053,-0.3037780530093992,-0.06853477997200062,0.04774828659829119,-0.03128268623760986,-0.050221517400799234,0.044563693048458294,-0.21785289216330106,-0.10030472883894453,-0.0733729628569224,-0.2904884560931279,0.35533348445943624,0.00021331870700021932,-0.2276949545810685,0.04306317798937054,0.04043033052357966,-0.06787790408902067,0.11868805964186589,-0.13483058112692817,0.08967100168850789,0.16248227286414407,-0.044398222739705076,-0.038656495090769905,0.010388747504514004,-0.023820195280329207,0.14083639578723317,0.007959598017758585,0.19358078150539298,-0.032155207389190144,-0.004840204747717479,0.08315947560181308
17,0.13600417926113395,-0.11696146520279588,0.023999906252270175,0.14347687855153474,-0.06261563127349672,-0.15996819912734822,-0.14510515829863507,-0.026825214252953464,-0.037212201799231626,-0.09687582210147844,-0.019572905558692816,-0.04437584478830925,0.006368901702027224,0.003734462875110256,0.004019793665888838,0.02794409719724374,0.0709244869378849,0.08320510533262362,0.0010142893333890263,0.03652993233185994,-0.0788095494185948,-0.029524659418925542,-0.07245707282690442,0.0933962814718936,0.058113479529040155,-0.04513177711866059,0.03146102369280401,0.025326502586971833,0.03293810931673111,0.07035215489387282,-0.020350768325058027,0.26324638074463025,-0.16338568019882282,-0.014796080211355866,-0.013271954404086378,-0.1032928883422887,-0.03309246439999431,0.07704011528217178,0.035036037726295474,0.008534255047665019,-0.08767578641265564,0.04063936941362127,-0.006537735696619459,-0.033904420190152364,-0.10993104925752975,-0.00150628176918962,-0.3098217754117327,0.09121894618567958,-0.13414940775653908,-0.17095270053341693,-0.11347015779563524,0.2021051887237641,-0.10237130017464716,-0.005019889033327521,0.1145186390284336,0.23138157889671312,0.058145283066967465,-0.11968884499857738,-0.22284820063876792,-0.14469420395478882,-0.5007457665825901,0.17909365992158963,0.08211597562651454,-0.18782717110833635
18,0.1364907743089877,-0.12360790720906135,0.05713624779458168,0.12430755684443046,-0.061086219336161075,-0.1201566003830043,-0.062243521599876575,0.007847067859939338,0.15945217829610653,0.06968331935187638,-0.02584403799127842,-0.04656072528584154,-0.0006195637396442799,-0.03400672647802183,-0.045101074182283,0.08665798197064636,0.15566087834993098,0.08245015193976518,0.04664876997632995,0.09305467970504455,-0.15012900940500723,-0.034037207059584546,-0.16973160790116618,0.036859857603782145,0.052319888172789604,-0.05020452520519505,0.02673802761738983,0.016413959250836718,0.036196974623877304,0.031112070596551106,0.007270223448038543,0.14493015326602765,-0.20901987538837874,0.022609196888717563,0.15871934376819774,-0.15047873243648868,-0.07695769366525723,0.14544948895741416,0.04829015240117278,-0.03831881400492816,-0.12133742688224063,0.04057308458909328,0.03556845451454768,-0.0736547834905446,-0.02812992989070467,-0.08435574155192574,-0.029017529389162,-0.05005737459443897,-0.007906271065715342,0.08459944557370928,-0.180957290144183,0.293527316856367,0.21479548441597895,-0.24670725248527411,0.09889486252264046,0.1847449305215741,-0.0029869939415323767,0.06762350703583045,0.1854541164711488,0.15601828386858788,0.4354730014253092,-0.146166403704886,-0.15159355398622082,0.1567893340031974
19,0.1355865856656322,-0.12498882231961422,0.08350754057613755,0.10097743675520877,-0.05564786654739631,-0.010594961020881944,-0.005287088317457142,0.03603994301852911,0.24721336199686694,0.1786695092298609,-0.005988945957984715,-0.03202952294131964,-0.010320788734261569,-0.02180353760923731,-0.04217147856881606,0.1008545991955364,0.17113775957739674,0.0533557763075742,0.024598856255916384,-0.024097170774521115,0.027148202533168297,-0.022562882199568316,-0.10718824904806046,0.032930752985679906,-0.005138427687032585,-0.013181846258801387,0.02318377639462456,0.052328754638715155,0.12154120815583619,0.005024578600640331,0.08836700652081204,-0.2190499405174049,0.07859981922095342,0.005668416543464311,0.20765779902019188,-0.33471402515237925,0.0020999793915756947,0.1793497368472428,-0.005560206148811954,-0.05964708445183205,-0.19804844673846783,-0.014292081653372202,0.11874018353935466,-0.04416068239268994,0.1716374809611431,0.008950511074731243,0.2520165543428803,-0.03231979236884068,0.07976587155956545,0.10010039796253573,0.0014593449356703168,-0.05113253601713744,-0.025623053456379635,0.02014410198470523,-0.1530473845638058,-0.32888757963175,0.1279210822463966,-0.05585198762790064,0.01684954356342823,-0.3300061068177551,-0.22142146401297338,-0.12918321312096218,0.10658115619837752,-0.11115275898276772
20,0.1384049293996308,-0.12456332394997831,0.09130763297853721,0.07938604642815957,-0.049968737477323756,0.1011645759104216,0.016212426877488903,0.03565038276992122,0.164398037657356,0.1426604993723537,-0.013089551146095113,-0.014313992061318448,-0.024577954285342582,-0.025378996597373776,-0.06913147638634007,0.06186599066972463,0.07695535155981269,0.014258656397903177,-0.029807833238650997,-0.07391896618211147,0.14444665076632388,-0.012680917940887382,0.005528381600394454,0.05136884324597476,-0.10360701127925673,0.12184329937130067,-0.0051126960938659705,0.02252966833990025,-0.06891099417361407,-0.058837179048110685,0.008014252860743781,-0.12138761691343705,0.07434156635873226,-0.05868477810025724,0.005388816529803914,-0.22102652755539387,-0.011545024416456428,0.05207094095477038,-0.02312802205493074,-0.004315133068481787,-0.13171431189027744,0.02267409203782925,0.016934648012980606,-0.020234254590524803,-0.10230025362264317,-0.0067871367407465535,0.05976159075004376,0.011807772173660872,-0.048208140128937434,-0.08988527478836374,0.08716048884050603,0.015587777461390402,-0.2843679217267847,0.1700124768784359,-0.10960552766456727,0.06893590519869124,-0.16991830088069224,0.028643045046861892,-0.04864237416520255,0.5760904764269366,-0.05214430658687316,0.3850073838897831,-0.010720076355680813,0.19925869341808092
21,0.13793853020833835,-0.11713179137263795,0.09166650581879014,0.04472019997990095,-0.03949091563832361,0.19054790335929753,0.04830375348900157,0.0322602122285816,0.009331953031993884,0.06129439192008779,-0.006646117690823433,0.030015349855998436,0.00791360527307991,0.01418128589856249,2.3228899770133538e-05,0.0417731230462164,0.08065208117452816,0.053975937713569455,-0.03629160040103319,-0.10028487242923861,0.20477442635071447,0.09796140115245987,0.19008126614081233,-0.04636167037498623,-0.12062587177051798,0.10118947164897302,-0.015534134847338385,-0.013533023070821382,-0.06776917570843641,-0.08071388094806939,0.04302085797210956,0.04562733319720591,-0.024400270405285147,-0.03839946996919043,-0.03402649669304414,-0.26694006854313496,-0.029211958761953944,-0.010975934171643813,-0.07143579021606704,0.03602348512806962,-0.030074213745469393,-0.1724068106095415,0.02875405745046851,0.2759077128518636,-0.2914104780654318,0.12482477777293874,-0.18554372887387505,0.07341622741517044,-0.0005425121886668861,0.19789334211609222,0.06178221627028042,-0.22899640802527535,0.2855658107083805,0.23679455287352769,0.13664748679233188,0.2913086086280879,0.040602702940279164,0.01893213561684698,-0.09498173790850774,-0.20391680194316694,0.11068979843661053,-0.1516905315164709,0.03952121135888832,0.04680995226170365
22,0.13490868730236463,-0.10464091683330914,0.08511797294878631,-0.00519426896406728,-0.021335028636855796,0.25248952868915603,0.07739571397988049,0.027669354400119434,-0.14980541002297737,-0.053941133841905554,-0.000512722210733594,0.09127300056016746,0.07936157129802977,0.03131210549714444,0.04825062755425183,0.06140266363898409,0.1625272478258803,0.12503041499341325,0.01388619937280136,0.008657476750524445,-0.01072400211768576,0.130848036885361,0.22691045519048098,-0.10877692248325457,-0.06169930432541582,0.03319134081842094,-0.002695157807927215,-0.00672925694640545,-0.018736835101465288,0.003658651243824085,-0.009681652191060486,0.25123820529684704,-0.16638006879398956,-0.06357955592724478,-0.01099568830681455,-0.16138958093668088,-0.05667445117772929,-0.1134977494030676,-0.06629856553064342,0.11773244559103627,0.09366512171120225,-0.14438117654228466,-0.19273555295293068,-0.32566509922283027,-0.14764495549491163,-0.20142897421626962,0.06136996815030546,-0.12378137604744939,0.02014634253174555,-0.08962093075178904,0.0729202929480367,-0.1823012949516496,-0.12920162670035767,-0.38279504620110705,0.02614114384918205,-0.2316386443148272,0.018498827447432892,0.14412686639527106,0.12111389959568915,-0.026673807952534767,-0.05555559559701394,0.03899420437969888,-0.005298811418546462,-0.04397276720158466
23,0.1362450328092581,-0.08881055720766257,0.07061973711503869,-0.05755657257462833,0.014214288049027725,0.23448520061966388,0.09615387067161994,0.014105375619808732,-0.19190754201516436,-0.09396421249013742,0.0026236585171735102,0.06791273904043348,0.08051888864586865,0.05731015987354535,0.05762270884522731,0.054167308269076564,0.15480764006785655,0.12272662794170994,0.03573916744480684,0.04402453305025178,-0.10326099595654817,0.1518579312159959,0.18619806468168454,-0.1749646127970877,0.02872413905687769,-0.045412055510529195,0.023176368163968952,0.11666601245977432,0.2196863316454864,0.1496096845415274,0.05545718799320809,-0.05345852455417435,-0.04253121537261423,0.044645694160136376,0.2960521081618912,-0.06171059972910968,0.010505935326843024,-0.1597082069012032,-0.009104595477889499,-0.08786403848047705,0.30567444050538006,0.010840292614762301,-0.005926854904052731,0.09826472173062922,0.3772101909200478,0.06287358304120602,0.03984040758703744,0.03442067792994836,-0.05531182005374116,-0.1491616434221134,-0.05372429646670596,0.27390102095282803,0.06080344261366864,0.26851764644138787,-0.043399183468621816,0.07668533220697402,-0.025803009109605257,-0.12609753039508279,-0.047882770314627975,0.09557832245463771,0.01946865600316733,-0.023053432024829644,0.04227685867862416,0.03242630543922398
24,0.12274271087990997,-0.09656438494453133,0.016696843436712044,0.1665846903928434,-0.06463297359024353,-0.14314034597577555,-0.24031545177908686,-0.06985129027026493,-0.21005460171019014,-0.23648002392184625,0.06576864140573127,-0.09930648078018278,-0.11372784496051673,0.16425043837787062,0.41007679270939407,-0.16329193652745821,0.015058925925539389,-0.03174318495854411,-0.018919979886549358,-0.05805582436627649,0.13475204236361166,-0.001284611463939711,0.034426061875142376,0.03320927719850675,-0.1654680710407233,0.19049511097327798,-0.12945137549819577,0.05569260119896364,-0.10815533307378575,-0.13106502638211942,0.019560554535345887,-0.2526885072480227,0.10202895720816826,0.06427567344669222,0.2221673528085341,-0.014609891022043936,-0.002876732322166365,-0.0021829227085887817,0.02276470068396571,-0.08389262889272817,0.1715189910095527,0.1390401817552911,-0.01406760932820264,-0.009424672773198056,-0.09743866466920828,-0.08390733545114258,0.03454501437584376,-0.0673610529589032,0.10330852969988437,0.2230143414843393,-0.18342604058190354,0.04533248252220006,0.10503183619916151,-0.148738440595261,0.0024779043765011787,-0.04121418134604368,-0.06493199389397614,0.08262240271169938,-0.07552334698807908,0.08365623927589441,-0.05980878367584931,0.03287612797313761,0.00332689385130841,-0.08304039006926245
25,0.13001146887902398,-0.11423144091895271,0.04583658053110806,0.17681859220301616,-0.07164602348435732,-0.09380074483827873,-0.20570118492388204,-0.05716348149794918,-0.03883191071713137,-0.14360696242147195,0.01603444101746653,-0.12832204801984717,-0.15042642962486064,0.0473041937630947,0.20048070099144827,-0.08489749914348338,-0.06833264904374886,-0.006774711524669574,0.032105536071371746,0.09392791521310703,-0.15142323850476935,0.05374353967944326,0.02089941749795623,-0.12348038320698367,-0.012472128345959472,-0.03167045978446319,-0.06863324352537684,-0.14209923339932284,-0.14856972834179616,-0.08454308218578249,0.05727549680343169,0.08120479335306058,-0.09318913804065974,0.03706222210277389,0.10004537381810612,0.08880224300172548,0.04588183498680893,0.02019634037279719,-0.02176421228925858,0.03750522494600006,-0.09126472675874506,-0.06607347555083214,0.0847301622289248,0.13868542310580345,-0.0957432358291421,0.08144163884349394,0.21765055629107666,0.008627354883667802,-0.14905329389751404,-0.3186981326320155,0.27747538546696243,-0.07136785001110404,-0.30325187209791193,0.1385635045020222,-0.037400641351909084,0.015660282886421406,0.0941336329507499,-0.13709742836209693,0.17395181365562254,-0.15938281816627323,0.11563280351228719,-0.15620102129216493,-0.0410895495960322,0.2620487143005762
26,0.12956954269759535,-0.12354738153011845,0.07490942305928848,0.17786575920171313,-0.07506891456293979,-0.031979115185260094,-0.15676035709059824,-0.02241746980026762,0.13716628815338508,-0.00995646565201662,-0.0214697339601653,-0.1494266764403412,-0.1596840087400664,-0.0311369976069486,-0.008059854635295821,-0.030892309397986095,-0.11389246906919465,-0.021251358444290984,0.05629979439013815,0.11893357521887432,-0.2830994298538798,0.12527268746344758,0.09760178579049578,-0.2466826748639913,0.14360644545108944,-0.19368656943140536,0.007665858618091763,-0.14746411693254263,0.014038664751425178,-0.0020118323376045744,0.007676986593514665,0.08836542635614902,-0.036626458871128344,-0.02388009768448756,-0.10841874422354789,0.08332030813872375,-0.01785943134558187,-0.07441712743504111,-0.036379698857185234,0.10181714352230238,-0.08599525674311789,-0.19991050115901965,0.04922333564150265,0.10969892235250536,0.1542673720955186,0.06715257241039074,0.05487698282285311,0.0003208408891113429,0.1093198266849826,0.15521770290789,0.04107675699805392,-0.14187703606786942,0.22405910316261743,0.05402726265794788,-0.018048317166427144,-0.13142605558479764,-0.12311414592368039,0.1617189576782695,-0.15097608612151697,0.23345787536643914,0.03221772328919038,0.17340422333613925,0.06816175141327811,-0.36135735919075174
27,0.12823520342281775,-0.1265402342908504,0.1022124800026808,0.15773971585175703,-0.07536590034139326,0.08290082892999992,-0.10392104195985874,0.012920822041522713,0.24173883575515934,0.1247763986464067,-0.04073440125086914,-0.10914778921593137,-0.13705165554955265,-0.08564480970202826,-0.12342091009758026,-0.02330879300059413,-0.18002129407929865,-0.10630879095099222,0.0006338110400008756,0.008231557382828825,-0.13238465863362853,0.07708807420937193,0.17487791476532843,-0.12637830054765703,0.09719288672794656,-0.07426473405573031,0.027108784861353874,0.029699788555035855,0.11494446920065883,0.0700303993129529,-0.046373911671974355,-0.14369810560380736,0.16160907535143013,-0.02350389704315862,-0.13951942783359392,0.12102761054517017,-0.006631546560712851,-0.11795597241319201,0.004004613349543627,-0.02773587705555177,0.23622936204651784,0.10321132033750867,-0.16171280219624387,-0.1526352269126377,-0.021677815138309468,-0.10514103699763942,-0.14318497581722667,-0.028650545626101656,0.09430976225847043,0.17872712882835307,-0.19997405989179873,-0.047935292809597005,-0.0854749852851983,-0.062217063770650366,0.01756492923995502,0.08626994165095113,0.024637981753081253,-0.11212629105026803,-0.00035404999035372475,-0.14583718785640173,-0.16317842910585867,-0.04711228968784788,-0.01589123322540706,0.4669559541369643
28,0.1291887008381884,-0.12341797600375537,0.11064254416632549,0.13681501789833986,-0.07426399058677854,0.19466578480740607,-0.06927830554902616,0.03203662770850499,0.16047896456643698,0.13079311961047363,-0.06022909330747574,-0.030415732018483445,-0.04118220851280813,-0.06603770810162023,-0.11095010684997857,-0.0582801863240166,-0.2270316286959016,-0.15726899457614718,-0.05098134276021821,-0.06742100715947821,0.09993569212337389,-0.027457958791788334,0.09968174115102536,0.06448410792239276,-0.07565738409490291,0.10094841282989088,0.0030161800496989015,0.12784066159001417,0.055206557874096965,0.05355675168410723,-0.031911674129196904,-0.09075439917735792,0.10600513588231408,0.021377569167997088,-0.02160375133254809,0.05187331696431642,0.041234968762214885,0.006185096235807356,0.040221066380307105,-0.06258667137123332,0.15868071955144536,0.19552280307713518,-0.03492630231720141,-0.049137018713478,-0.08599620931332734,-0.01188880444729402,-0.0732825493252171,0.038549398289579984,-0.12171442779455945,-0.25380657017709485,0.09209257447126368,0.1137663370249245,-0.12836802207663367,-0.035000112490936354,0.0229692093681262,0.06935346897648129,0.03803978580762504,0.01789212141382337,0.14742623550796247,-0.07090769038477515,0.2632045062797352,-0.09442945389290652,-0.052000430704928574,-0.5712492889098871
29,0.12620508159494798,-0.11298431070607069,0.11015978661656635,0.11503278357936601,-0.06547571605330957,0.29488384301841836,-0.049446947328702834,0.028462578808760162,-0.006452620172363153,0.05625609264021119,-0.04756056696130086,0.06526838875033156,0.07790460406824641,-0.023193122160348776,-0.04637145886116806,-0.12189004469430212,-0.2665232629754122,-0.18527738551186418,-0.04603475600457576,-0.05078753198844388,0.17324420488637055,-0.1350817003100776,-0.12297863140638811,0.17412088639948242,-0.11454048851769898,0.11708187892989247,-0.01879539830873933,0.08242081351223597,-0.035608093636012264,0.006168446542291345,-0.018997397394408314,0.19134498305543896,-0.15298778919110098,0.07174647495705064,0.06158212274277641,0.19861842081517178,0.05169231253106525,0.0285439350660312,0.009427048438778694,0.023893368947437592,-0.04911177504128397,-0.05981521602707964,0.10542232927758521,0.11305376819763802,0.20914373248239904,0.06478128635335151,0.06937987260850409,0.0032691029335403174,-0.03010659705399106,-0.16595079206199664,0.09009795882723476,0.08008496395665138,0.3417699523882086,-0.1795902918072285,0.08331448703873118,-0.20556891270375205,0.02154640285228572,0.10599710546651434,-0.16199443871728142,0.011244930821175336,-0.15198503688968112,0.029822822762968697,0.04511509093566725,0.27957692662702255
30,0.12675631649972505,-0.10367185650112068,0.096318352475667,0.055506133885656395,-0.044595444257182565,0.33284414118716193,0.0070869150930127234,0.04343098530714851,-0.16027850321658327,-0.029298897673530472,-0.03056362640234942,0.16429653649697562,0.1980418550907981,0.0330380902787495,0.06262514410478268,-0.09606924826416297,-0.11283335282745222,-0.10304113689404204,0.021109750604881405,0.054324789544458574,-0.015992068162193673,-0.12907526813137654,-0.2592958795909175,0.12827968010314095,0.05567209036906755,-0.046325065098285115,-0.007211919404276657,-0.09919669706901921,-0.07691980240946615,-0.06789483948489959,-0.0014994753229966018,0.09969585442235906,-0.10336477654870767,0.022554549168068136,0.011531538760653937,0.13809954221073545,-0.029319380740802408,-0.057556746472552794,-0.01179164535428194,0.10878937641012225,-0.1323459299865747,-0.1298305318581024,-0.025247832788678107,-0.09664890548934471,0.03344537915976453,-0.03367200929800035,0.0782021624779036,-0.028470072956112515,0.10189644175340447,0.38132761841736906,-0.2660341995416888,0.011232678564020878,-0.2839007695686064,0.24286599634880082,-0.13847354592554859,0.12916678620385746,-0.055472920325884995,-0.16337690725538925,0.13496057022929864,-0.034583713403060545,0.018206187286633174,-0.041165337026624935,-0.060245502234568565,-0.13482094599060107
31,0.13051440152253685,-0.08951369938681221,0.08571457935200703,-0.014663058266184196,-0.003757777904649752,0.28844663834130885,0.0467167008073921,0.04167776219987078,-0.20661343077488184,-0.09874629609325329,-0.01722645864992081,0.14778303418289965,0.16955212222916893,0.06340527224006208,0.1097196100195483,-0.02891731747630042,0.06295003647250076,0.010060090109753096,0.07061348319546623,0.0964503994417096,-0.2509248384996682,-0.07523233623402745,-0.26354289423459687,-0.030222779964792806,0.25201038943938125,-0.21697006003601643,0.05077851987059731,-0.16669288138925406,-0.005778230269892687,-0.04106534193019862,0.016101600197660867,-0.33419803448151375,0.27357061665491567,-0.05085844862972491,-0.18006146981386684,-0.09295609612757227,0.007807860719399777,0.137531160741458,0.04265261988347402,-0.1158615955523502,-0.040140000811980964,0.19571598638367346,0.026129065733571835,0.052609997779851314,-0.16399862244147628,0.038644960272756115,-0.114834002347136,0.0374530587542774,-0.053158120142281884,-0.1375056871128218,0.14543322144675064,-0.053910102431123264,0.11201505607038093,-0.145002954167124,0.08448095386420174,-0.019771931680536772,0.0505108024544918,0.09723660207155557,-0.07516395187987567,0.009974132937570046,0.02168785695153877,0.03204862878870725,0.01522756653886432,0.05141965072390209
32,0.11681857862288765,0.035674460504642395,0.0711974536293706,-0.3071242589882277,0.003773506099898977,0.03432827977724684,-0.12072674698888246,-0.29912692225756965,0.16950139936187864,-0.13842779846075823,-0.19133175549334694,-0.11158040618485102,0.10538489334839495,0.2212755211125575,-0.14959553874238843,-0.12852908247792463,0.22696902566669844,-0.26399770147619833,0.0925598222644568,0.027406284174127438,0.013634079267227234,-0.07067567652371784,0.05950748280922089,0.02149740171228381,0.0010680796418650051,0.14456844244919415,-0.1139614985920889,-0.24995891415501434,0.24197155154067024,-0.027113569664091258,0.07525532338134015,0.02922577950687047,-0.038792478612383864,-0.046578653777021736,-0.03256555335666775,-0.0024566533244511635,0.08866446086871843,-0.21501685896481457,-0.050512153920496135,0.05214694966378592,-0.0008790444771862443,0.10250589927356536,0.40911595903046843,-0.0735626437369998,-0.05359559215370134,-0.16104389841554875,-0.05509512644466019,0.009542240931544647,-0.03393555681997831,0.028627607713369266,0.02284679467186449,0.0021456590001925433,0.004584081611512358,0.015659519274368733,0.0038115073152266143,-0.011071523310606155,0.011959363990010408,0.011327327395142216,0.004071025910264432,-0.005215188243635122,-0.0013878435826111951,-0.00010544861605464584,-0.00026672675675342046,0.009328519114099237
33,0.11250703455414537,0.0903564054338504,0.06998121240603905,-0.257333347027243,-0.16836815925726573,0.014737485495624298,-0.10966506109846658,-0.33461377476991905,0.21434613677103306,-0.11909903445623184,-0.20220802750905742,0.1432148475479227,0.014071659509674124,0.2764566123990786,-0.05834991839959273,-0.025640818933305318,0.06722219685720383,-0.07064865847522261,-0.22427080066549152,0.12936017816746517,0.08423553335741588,-0.03284710367784436,-0.0004163170930504556,-0.09574810628413166,-0.06771871981646932,-0.1596320962093765,-0.0779086541273822,0.09671603076937488,-0.16404574077280426,0.11238826691562698,-0.022360580029197136,0.0201559258255939,0.05428192106394562,0.13314268207146818,-0.018807467844756898,-0.03696434617266131,-0.10165646750821333,0.13161746116949657,0.1974074054750593,-0.020311352069734487,-0.06531355894577713,-0.036549784102785116,-0.4753652161982265,0.10905590695471361,0.054068943835511446,0.17190472017008207,0.06330657759166997,-0.017681297813599083,0.038001224767183595,-0.0172938375006937,-0.01764899583702731,-0.00045655598966939936,-0.00939292757101634,-0.032162484075268255,-0.011208485795093232,0.00851411053224747,-0.006623348301749821,-0.016045283504628693,-0.007066874741015083,-0.001036408947706527,-0.00022369905930177958,-0.00045814945438713006,0.00033323814494473636,-0.006217170691689328
34,0.09810240611296878,0.17971103558651816,0.07763866371090296,-0.14428211638374716,-0.301816279288063,-0.01983600017005621,-0.06571435477964611,-0.14093962290092496,0.12622809683874764,-0.038125287567319414,0.05177653461913598,0.30644907931805576,-0.07299913460883548,0.04058586898663929,0.1069805911150686,0.17776909742517133,-0.21394806582891487,0.1935968836748637,-0.2121282944637379,-0.10449565861521873,-0.08765065361052912,0.2209046297827471,-0.12276600560882109,0.07365613641315094,-0.09264033169564165,-0.14996514168226602,0.12993241732316776,0.07481148518155582,-0.1125832562034326,0.06479401695409526,-0.15686228950966236,-0.014989672368615804,0.036713603161992854,0.04659916793123013,0.04638248435331434,0.03348459574301114,-0.017586951462628696,0.01289942355351846,-0.40237828875998877,-0.03874408008734867,0.1104066715278729,-0.032562008970149645,0.3539716768719002,-0.12313775203458939,-0.055929082886988335,-0.09120421778797863,-0.04014302388301824,0.026455361163981714,0.01293809699805798,0.008903209289989222,0.01062593389918065,0.008477998557443571,0.003655919511134073,0.03189701507186596,0.013370274538227506,-0.010786628912450913,0.003840894463356892,0.006482474343257244,-0.0041692867126692235,0.001628085447559293,0.009199207452043778,0.009719658201228543,0.0006240337317071215,0.0017173052559057121
35,0.09014048019516527,0.2015458420848493,0.052382093334927105,-0.045882237842540384,-0.35154869140145767,-0.028870372277343154,0.01899126874986443,0.08613703164186227,0.05098069718314974,-0.15068171167471614,0.22677080053960144,0.20783998546160753,-0.06380521665256902,-0.22455810644553353,0.06110957984856446,0.1000393608054829,0.02914457506622397,-0.1473447672973818,-0.11980543072731563,-0.044935024973473556,-0.15403060923625872,0.21960986413393863,0.06006320255789642,0.2457136306934186,-0.05284652028732109,0.19105319433887336,0.07525127407386105,-0.21185759023113676,0.2252286692680029,-0.12263407102088153,0.22718420920492893,-0.09814437753731214,-0.16381311577078642,-0.18649977948311938,-0.05942037409446282,0.03132723709145212,0.1271136519689959,-0.013131421063825463,0.3432094761013275,-0.006056433602465328,-0.04472107042034745,-0.005687043715972923,-0.13492660307419788,0.061381660790559546,0.04887985805208098,0.05337231759618083,0.008059368752522708,-0.03604833067157126,-0.04024462681126149,0.014567977215524691,-0.01055476952385391,-0.014593491606533615,-0.004236261652278056,-0.030165098697001652,-0.005611922987201146,0.009865105213572915,0.004547870244293553,-0.0012224264007798524,-0.009680072126605876,0.008080999649569959,0.004379421643026682,0.0008807077586466816,0.0019041531221305474,-0.0017005058358824238
36,0.09596162517474272,0.17502649858603747,-0.0659726351194113,-0.015567551675111027,-0.3187363928664655,0.03423331392656751,0.038115410595059296,0.22574363324204494,0.13892510779469813,-0.27247845491837486,0.30421744436225495,-0.008232964348814821,0.07931715493744435,-0.23161981697650283,-0.10131925368665999,-0.14720489880919563,0.1518265508885881,-0.07234349044069394,0.08373625776158283,-0.14516617231354795,0.028232545307570155,-0.20113546036082608,-0.0906116528211963,-0.29350743860873246,0.1071427776493476,0.06130740136789725,-0.3052336821863213,0.08843949013207002,0.05131305275613651,-0.0607322220378306,-0.19702741143893995,0.17281187030294348,0.17493734262624291,0.12355518266433656,0.036887640724152196,-0.0366150017160326,-0.12523190302560122,0.007285125614750577,-0.14047278967939938,0.0651012606009458,-0.013232532473848667,0.06961624238328395,-0.02550519417903635,0.06955356210131296,-0.023205528771392443,-0.02240681571466621,-0.013076667045069537,-0.062455658100794925,0.14420947243215587,-0.10081284264310167,-0.02253634686465575,0.009077409509154255,0.01223514013589136,0.0509259568982595,-0.01114614860181963,-0.007498907003213557,-0.0061372957047528265,-0.006043769752555231,0.018196002334996297,-0.004954818821944786,-0.007189081997737712,-0.01450037579150501,-0.006806271785307683,-0.005216664641362542
37,0.125565425036167,0.10802116713633039,-0.1967298604909715,-0.06434812628374692,-0.1431177588631421,0.06663326412289707,-0.010003560418862759,0.1969571875873079,0.12034599264701704,-0.13059098780173145,0.03850021313048852,-0.14737131335743972,0.07091516141840383,-0.06460789287126018,-0.0483726161303009,-0.2914577471510289,0.09001700272472858,0.11724612315561776,-0.08682848389183043,0.11414166188759373,0.043694284842033734,-0.21148672963056264,0.09779760087686076,-0.10031163197347631,-0.015815162770211867,-0.08171682581306247,0.31088900405129516,0.11521019715871664,-0.1912065236614083,0.04387537066393442,0.03442848953248975,-0.10808738375020571,-0.09841141920711938,0.0006229290259888165,0.02871685985246686,0.013064175685248008,0.17244550669663586,-0.07045961775993559,0.050603453007658124,-0.11916421638130867,0.0431242462975931,-0.10765633678394715,0.07852376271694243,-0.14331280749412184,0.024308171820217217,0.0653580161648738,0.04296966244077999,0.2369715285574543,-0.4008282803110727,0.28060877789970406,0.12200200893938791,0.01138661058120971,-0.029066264124598895,-0.11875059019337372,-0.023304412902729506,0.030636035380659732,0.006891829252540088,0.026724394063705886,-0.019920815255930365,-0.00428218718849302,-0.012227564589458728,0.01881877452614747,0.008973190659534558,0.0046959617592375325
38,0.1296966368734322,0.04071124511792562,-0.25529564188220916,-0.11876142228608236,-0.002949760656302372,0.07486027379152468,-0.07516379543327521,0.20071992619600745,0.06912358166266072,-0.033206239094783464,-0.181492282063618,-0.07371477311815827,-0.0562956953473158,-0.040564466535303274,0.08513094073014918,-0.08661798417776527,-0.001443549920041929,0.04344489401114126,-0.0056597913476275075,0.17472815006170317,0.07904317811882555,-0.029340552333147505,-0.06536324344375363,-0.05956858478105956,-0.0840739334167821,0.031118059050877694,0.3576268407733211,-0.02367201859015207,-0.04612942445685405,0.09785491339974145,0.04040177898637373,0.021736818207366726,-0.08487125585181254,-0.047301309164732006,-0.016188803592192262,-0.028704733105964754,0.2734052624732017,-0.06409252579526503,-0.037275445127011156,-0.19905882971107117,-0.07694849366484093,0.03439693012122715,-0.017123044432013818,0.08359339480737049,-0.11237227255514853,-0.06700897426258559,-0.06878698887993014,-0.34134917305747337,0.4248149332140414,-0.25014353911414855,-0.16583927425344158,-0.036726934443469646,0.02245918197528829,0.15007164486924943,0.07333897628642988,-0.06182098681670846,-0.019766373342639337,-0.021093776038185477,0.02097940146691253,-0.007870382094311647,0.013378331039920588,0.014108885506830711,-6.635572530819256e-05,-0.014231151153448904
39,0.11882773897755003,0.014036494949502891,-0.25455550449607645,-0.14605622060716542,0.036171763589884644,0.04094389355029806,-0.1250640592983358,0.2847476016017163,0.03583906561533455,-0.019024608154263264,-0.347389460730856,0.017405828583184575,-0.1367118964473296,-0.056236380036061226,0.2415951975672192,0.1758680697168033,-0.03642793054660891,-0.09599822911869114,0.086712507876829,0.014339613346766733,0.13366865182640028,0.23594597811964488,-0.27435291530265615,-0.17348386141510447,0.010643156392405553,0.22524035880787527,-0.06640117666237877,-0.027371300946984672,0.10696059188985221,0.17538917434335363,-0.03424255001938306,0.015139379435988615,0.017506069233502286,-0.07456937246194531,-0.08698706319001796,-0.001349550973341905,-0.25062918060183337,0.0028887041676869465,0.010490939790128523,0.1867914358338318,0.030183490921695505,0.05800841455281703,-0.017983791660425345,-0.07870904166883579,0.040883325621956346,0.15062457298724488,0.014437112212083061,0.0977488870103804,-0.07681012652610404,0.17817461015283034,0.20503117648473806,0.13705834664610356,-0.049179581243176076,-0.024720710634248494,0.0993088656801463,-0.019604514350160113,0.019143713034749182,0.006727923737747991,0.00480685631169564,-0.00803359360495004,-0.02255672839298925,-0.013082760694544029,-0.005820876974457073,0.012268419743995385
40,0.12083137893188191,0.07141395134667149,0.1222971968552628,-0.24945625584645784,0.11800097050261514,0.005646426941437751,-0.1848973483653541,-0.10938315799886057,-0.005535701711270265,0.03278108731331148,-0.02489717862794255,-0.21819714063576262,0.1959320102507121,-0.2440058553151231,0.05666144416091761,-0.11893047296715131,0.07504284059300949,-0.11509969271470459,0.300374720375235,-0.221157128798501,-0.08839456536739795,0.17054853914614382,0.06965947212172363,0.15511815082348254,-0.0037878290226014914,0.013387135017637025,0.2546295907745576,0.012321773794251006,-0.03232011407770495,-0.22569253421421917,-0.12391217975448643,0.014034869753716178,-0.092900000631045,-0.05899780222168963,-0.000913796206880646,0.06591904246310049,-0.17515145481481437,0.2494202741730114,-0.31173466399045213,-0.19169499751350058,0.036693430407306354,0.010367360838109185,-0.23176970459799767,0.03741736974803052,0.0672769337581017,0.11015732231356412,0.04619673761077006,0.038371734545655,0.006485070590554132,0.01180846102229352,0.014944309418416596,0.0012425316231480243,-0.019408832568452293,-0.003406420548277639,-0.020527327600394312,0.004045633104015234,-0.008506570416131051,-0.006320497534194669,-0.014987461182602899,-0.0047679756596465395,0.000780036749973595,0.0023984504739474333,-0.00608090304057151,-0.009982565110317296
41,0.1135190931588948,0.15301556027541305,0.1418506615361431,-0.17768274530066222,-0.08595521743455718,-0.02674931749875894,-0.13711358754643319,-0.18790825501561484,-0.08241131045779135,0.19608552122063644,-0.11950760653849743,0.017067349619193935,0.013863586095745674,-0.13390175285720443,0.060380394853156466,-0.06947967736784014,-0.13359145784148468,0.300321240280696,0.2570310159893961,-0.12655165662868434,0.0685970270772031,-0.0863620028325252,-0.05779266873380172,-0.17003276921954488,0.24195971132752445,0.08770307173254056,-0.0991977609091333,0.26005143497460254,-0.060824858915650884,-0.08077923516760384,0.035077993559497804,-0.031430229987682315,0.019640951061528238,-0.24543504999068683,0.02670485547067808,0.008242098122892672,0.21238516056343223,0.13232413155553896,0.340540436376531,0.20801624495232143,0.11508930807785564,-0.18498598223235363,0.1320674505909134,-0.0071873936624570756,-0.008232968936961377,-0.02698292775628519,-0.0634458836479056,-0.1174359601249168,-0.00804680900902361,-0.0387381531701807,-0.050202403977601034,-0.021168865053494204,-0.015169232851685414,0.01008110599691324,0.009635439562543556,0.0052967143411429135,0.00046236810724603616,-0.010005199415125454,0.02381920537698002,0.0142256714033734,0.001938262871363991,-0.0027136086147070276,-0.0015824019453319627,0.0003342861850121337
42,0.09516489104863605,0.21971067164412564,0.13696223649333011,-0.03156161374191562,-0.20517584533017036,-0.061927454739734454,-0.019987552513460898,-0.05041938820217099,-0.18197795045305673,0.25305949775818354,-0.07672991752987793,0.07450615662114153,-0.1382372170641896,-0.009339272025401383,0.04976420813757363,0.11720463114500189,-0.15083224722407046,0.20216414791278603,0.18089473422961377,0.17740351769625673,0.08492976046997981,-0.2804449472039924,0.1169432947105819,-0.05348740203112716,0.09686090485266136,0.10874125584828934,0.037945170631320746,-0.05447917343904213,0.10365493214230201,-0.1306608864778132,0.07188905972343371,0.00865152887035026,-0.09576720056313565,0.1424512648663352,-0.015973811684846434,-0.03289378635290485,-0.0877448786307273,-0.3549640309737635,-0.18017015128281771,-0.12622200209122247,-0.24988973291323036,0.3092936324550616,-0.1815795242333133,0.04086688478263494,-0.001365010819613724,-0.005988812191415158,0.06681237768867274,0.15140060728587584,-0.010769797200143587,0.043838436721427704,0.05257620151096995,0.023952242892784595,0.032340098609404025,-0.011071127232834016,-0.0018433199927492191,-0.015453190773356273,-0.0037111283904108228,0.024013677791684965,-0.010277225700046282,-0.016492844039902782,-0.01579543635078199,-0.0074806998218422405,0.004675971576831112,-0.001650679742404161
43,0.08904207433459048,0.23190780326448968,0.06714068108361845,0.06086218550096918,-0.23879377928175946,-0.047882768524890394,0.08414719828436704,0.07455663818668976,-0.20219946066766728,0.11699119683665149,0.010210276883829816,-0.11029467600697869,-0.06809828148099921,0.08816603065895515,-4.134078885862418e-05,0.21985542737955413,0.06274249359808695,-0.3117743954543683,0.2744986770098078,0.228464271730649,0.08499159607241324,-0.1163567976807515,0.19038700336458972,0.13845025465866345,0.03326490090455571,0.02237607816988152,0.14166785818940905,-0.1950912130512043,-0.14221114769445373,0.2809230420488433,-0.022507484354255557,0.0624583645802808,0.21701478364926544,0.16051790771773328,0.07550955468860376,-0.02275709877101912,0.001515171765346001,0.3019751618233195,0.0016910061536031529,0.09393266673933484,0.17617635731411393,-0.19776556544034996,0.07892965771150179,-0.04485622078218725,0.0042850361678135095,-0.015449557185289085,-0.03840158350362116,-0.006411868081379807,-0.006565316719738194,-0.01199531499793309,-0.038525950281216546,-0.012320621097200793,-0.004893250844211147,0.017920794030934065,0.0037555280386508683,-0.004850493701866666,-0.0025541417640926323,-0.006017222757335405,0.0007760965592281122,0.01843489095598557,0.010075467873965939,0.01713456534331409,-0.007139745044370205,0.009359215952299271
44,0.10000757300027562,0.20892459158518945,-0.052188240928019,0.1118865585332029,-0.16706587257032482,0.017991177111616723,0.12009171675649687,0.08283674719050052,-0.053726014679097905,0.02352221583884881,0.08884291728000425,-0.29039575624764263,0.12518060189107857,0.32584447907471786,-0.09080301301519439,0.09622673265854853,-0.05069179703135108,-0.13472496147428795,0.2622119367170521,-0.027963512986643808,0.08682746817330243,0.3183005685389307,-0.12846806513413414,0.08991153262283486,-0.05637230556531518,-0.2816101072770839,-0.23801995489872255,0.28416580775353634,-0.09397725694056436,0.04291496489884693,0.0005163693793372726,-0.09405264424808675,-0.16352710862208597,-0.23116811508934337,-0.0636274627126855,0.010898160680435559,0.06037138889280551,-0.20473178117105936,0.018477901013783132,-0.15354814045237472,-0.13012536012100112,0.03380534937614471,-0.020101715040240636,0.014064324963920474,-0.02121297735220231,-0.022272891197008274,-0.010127525448959084,-0.04852244905167495,0.017849626081943445,0.009940791448544622,0.07103393634224166,0.019460280842030254,5.746380525988026e-05,-0.022881899700867174,-0.01767992239924511,0.021256055169458818,0.006413698001067836,-0.010495185436735253,0.0061356124148797125,-0.009001841869562054,-0.0047585229060021494,-0.010139578257293173,0.00602544630158891,-0.0018450077843539109
45,0.12186696888206007,0.14676253550433146,-0.18260217920088678,0.05081833016032601,-0.07081825581225029,0.07811111651461736,0.029515328937448928,0.024454202907141752,0.05577514676067798,0.05959825300397013,0.06853991761477862,-0.23260151135755583,0.1718338777051571,0.19254053069520574,-0.04707334250082902,-0.15122347193318036,-0.12287355212830091,0.345922738004359,-0.07452480757875048,-0.015592673242332235,-0.023199964272874248,-0.051918092780709885,0.09258487982481149,0.12247549707945837,-0.08582621056040776,0.01789317466983535,0.02809821563493295,-0.16785356493818537,0.07367692581762916,-0.031488265697835166,0.11093014705928197,-0.21099882808260081,-0.15476791492918426,0.07757795169880491,-0.12739969055109995,0.034099973790809784,-0.5048083828021601,0.10558891306627427,0.10709430759248419,0.2594928052917993,0.10297678192499223,0.010544504739648353,0.10426278224241009,-0.05300060021049369,0.01659427464660359,0.06959951847695184,0.03210610013732855,0.01838347237090015,0.15125628421897175,-0.17418397224542753,-0.09916542313198512,-0.014242049101741594,0.014937965568083578,0.04026367567433109,0.042561670685334355,-0.0032425139544553956,-0.006910784859557206,-0.016297807699066597,-0.00023500564772710453,-0.009803224941122304,0.006800412039918283,-0.008819482464577005,-0.012317546361071435,0.0070010027191250435
46,0.12962900141646697,0.06604451625577515,-0.26248590539580596,-0.03524153856349208,0.039706978077591416,0.09272453389773354,-0.08522512517819293,0.07902285530663529,0.059306183999498364,0.08618338174545141,-0.017358347152961275,-0.01489157768666879,-0.01862409417097735,0.10659309140107341,0.04108651829421615,-0.03334405387106731,-0.08734382083665379,0.23436159588084193,0.06342015885628684,0.030064960824477495,-0.014022743501203049,-0.02624512246980909,0.05410859131656709,0.1921543284364354,-0.25483928448824233,-0.2557026437373797,-0.15626376646918688,-0.16608319990706732,0.30066387788928217,-0.1787665406680724,-0.058093535766199515,0.24020168863557706,0.32385533354965085,-0.1055040612856443,0.15004968146321399,0.03189551487000351,0.22970293116169846,0.16244255052438442,-0.02938088627423062,0.06447799690959513,0.0038468719558753806,0.001256904005809606,-0.1734969204512151,0.1471636326762412,0.057512007175437675,-0.24184149265180285,-0.009903775045837948,0.1031828627450366,-0.08948372972567582,0.09998221197689967,0.05656064024260097,0.025106625314279818,-0.04828043061090029,0.0016020973052112836,0.10291304384959254,-0.017812621845628582,-0.005900650167325362,0.02601324869490889,-0.0030082910298581955,0.02904777715112483,0.014142309252634225,-0.007939053436930632,0.0011442565176571495,0.011192564575177338
47,0.1288191533761061,0.02952917941565307,-0.2690792525736221,-0.08581225508916161,0.06303570584590747,0.0630228089493147,-0.13359871024591183,0.16888918930808017,0.0027449029673326593,0.08042222160160063,-0.18632126789578524,0.09446488712180863,-0.11665521123190334,-0.01701394406566595,0.10512965766169764,0.13298251091370708,0.06559776155726059,-0.11330641335242951,-0.03269702921738117,-0.06475186919217289,-0.07931695409039696,-0.025270937965614658,0.09827248018733764,0.12647130962611122,0.13709716505765218,-0.07247614397144932,-0.19405256463103154,0.1210342985469539,-0.015036496429848663,-0.13090101825440462,-0.03753969401897204,-0.018892863747921068,-0.08248859407350048,0.171209640558377,-0.07833090771468933,-0.021883565056745886,-0.048164005874602095,-0.02035045485052204,0.03207770135270663,-0.09758254780904596,0.010886972353689184,-0.07609451200211192,0.09087804489531123,0.0475909001145125,0.022399887472315055,-0.09589398291736846,0.06388415626986953,0.08493680644184529,-0.18391273930530308,-0.22384958042691228,-0.31068159999559003,-0.29417168970642393,0.12433917052994016,-0.11121809990491605,-0.43596028772312945,0.15625595113989546,0.01077907964351947,-0.02083956562386624,-0.03379810745167718,0.0066534050597119865,0.02095075750311093,0.01619344782403516,-0.00020219090268996237,-0.007238886513610938
48,0.11655094786899617,0.0927563337102309,0.17817621420894597,-0.1759369431578694,0.22466668577005627,-0.012061994598730181,-0.2021553554378942,0.09629219446554227,0.010069858730626107,0.058532593540477636,0.1748639290151616,-0.15023096536215652,0.1809621404623576,-0.1745652070702052,0.11587940422767616,0.1325758320535569,-0.06504984174749395,-0.013017563623187045,-0.031848298453235696,-0.12295466098492278,-0.07497219639707901,0.030908827102730185,-0.004573247471858277,0.05734378222580129,-0.19411264319199933,-0.18008834823544778,0.08762598174293385,-0.02670225594061392,-0.13412717654361825,0.16162572372593081,-0.014457351702347118,0.07256594503462847,0.20199538142076784,0.2858833515327629,0.06937151472047598,-0.11434122958440798,-0.06426201843553617,-0.34477364367489705,0.2686978226646964,0.17350740702137873,-0.1429881951276967,0.12747090290027946,0.07105092922823658,0.048306116217897654,0.014253005732109747,0.019047602146445165,-0.05495189240199545,-0.24691888940096593,-0.15800709335335994,0.0340177975995273,-0.016057079846407696,-0.04624251736502686,-0.000675722194122319,-0.011197811812932335,0.03767575332212225,-0.017525168516614405,0.0033190827843268614,0.010248320897147306,0.0032603951483142213,0.0008605532990372255,0.0005916011859606329,0.0002554992795675559,0.005690012594178118,0.007827649713607887
49,0.11189772062465642,0.16020565043604437,0.210028412026571,-0.07075591369687953,0.13777645424552223,-0.05358594380407266,-0.14023014229988415,0.10506457851734335,-0.1488593337380014,0.1736949278070041,0.021249072124435442,-0.036667356092861744,0.0029253686683624663,-0.23430895693357273,-0.023226954745241016,-0.2517049120470347,0.10538327670417102,0.035140920259496375,-0.20990412639390776,0.04523152754647007,0.02503030375020029,0.13429207890220943,-0.06101774680433336,0.03990183637291106,-0.04163296119594599,-0.06349145943769971,-0.2863467673829161,-0.09912185544336614,-0.048477312067108334,0.3179448870103766,0.12178662103185987,-0.028935046267799754,-0.03277523124360169,0.04244854112606692,-0.09096554041021374,-0.009726755991741637,0.09693681705314094,0.016512186522846053,0.0023699896142822773,-0.10976546736352942,0.013389696135720539,-0.10686689772948586,-0.028220848794367995,-0.0680214287622041,-0.12082599044046823,-0.1658430974075228,0.13015613223713357,0.4244284898354321,0.2798679089454755,-0.054273894617442586,0.040667647063123785,0.10366826053150811,0.05548574185704783,0.0314457408650515,-0.02817265672092206,0.011331175794076248,-0.008537800948795735,-0.00016473314617122814,0.00438994051188208,-0.0012508322102607605,-0.0090273490305397,-0.0066368119422142435,-0.00431921083502061,0.004331772901696611
50,0.10011238505818641,0.21256333097402566,0.17463424028179889,0.07962120671371004,0.029063892690504096,-0.07857007586533771,0.0171859294944445,0.10543894107467433,-0.22107422559188644,0.20151354741253125,-0.1425011204982517,0.021140014166105888,-0.14796915031217145,-0.06204620729796126,-0.11010516413223312,-0.24868605921029813,0.16651348486405204,-0.023070351232693492,-0.2820771439835992,0.14114637039941746,0.025835711783173454,-0.009042254255757928,-0.07615993745400802,-0.07219050787000236,-0.13864853895267498,-0.07692671806403564,-0.14294399425376372,-0.016858169639127535,0.12659003362968146,-0.05022999254413127,0.01674468080364326,-0.029587949256165758,-0.033640680135907874,-0.1236075420594297,-0.02879725061640212,0.05829997789876462,-0.16207457640751996,0.09495480983430885,-0.1748967487176679,-0.10047774225697467,0.0412793619676812,-0.017315299513745996,0.06997362470476343,0.0731749328422563,0.11859531073686053,0.08322516126101241,-0.16072296203199793,-0.4803952779500196,-0.26005263847301835,0.06964826815919337,0.0026734718553464223,-0.07718972747671574,-0.0846307786962401,-0.03923547019466987,0.009445692724123132,-0.002948758244177098,0.009638424656771921,-0.015171755446109797,-0.009961230710802182,0.005723283588930737,0.007589605462103827,0.005253877863042031,0.007946431987023717,-0.013973333922123243
51,0.09650034220018858,0.22473638014918834,0.08528742156070647,0.16276179518127085,0.013435784499126963,-0.05102927901098381,0.1478648082724582,0.017657553104467143,-0.1615988502828107,0.06576561251949181,-0.22801620228908878,-0.09432986926885145,-0.05799834307648825,0.06771304745736055,-0.034405309553607225,0.01787232508862117,0.15774045842701326,-0.21864218819983045,-0.24361261347013566,-0.14566425173481115,-0.13069119271113339,-0.002338648923279528,-0.08991959216800642,-0.1507693977366275,-0.11529363828809588,-0.09699215037257394,0.31003661111786146,0.1485326168117759,0.058098477989628125,-0.33355479319145787,-0.157130848971776,0.0824548524341633,0.10531507475295906,-0.0851735018339928,0.11455469676836252,0.00982578534099729,0.05085947558462077,-0.07637752808060584,0.1110390492890958,0.297477937552447,-0.0010556722336053578,0.10078361115666062,0.02832304191396963,-0.07451142904576694,-0.0864217263693356,0.06623736191439751,0.11881972531340104,0.262912448855805,0.14131824644808558,-0.0922216389142963,-0.07576722470681235,0.01229473174853736,0.060757840332494206,0.02850400359966683,0.023146279936886338,0.005014958543568371,0.004509934771490693,0.0018709197691811341,0.015244028941062027,-0.0132737604957677,-0.008131956057927082,0.0009965793126238357,-0.007179979232398881,0.010547842037978622
52,0.10258653699240718,0.20056025782409106,-0.04313101241637914,0.19064849343432108,0.03554362678981761,0.029424520334591975,0.17092784437295086,-0.1315376990765253,-0.010881561854156577,0.0035512035117136196,-0.15922334109498365,-0.2259179518305847,0.17695179530088564,0.06824601942763145,0.08522724194004797,0.19285690258321858,-0.11323017605358791,0.06933364386194404,-0.15641749262564703,-0.3416352280960412,-0.18491623689097897,-0.08737107043068523,-0.10664548782569777,-0.17601947277046956,-0.004560537328974462,0.22781244347374116,-0.055943326000234134,-0.1557085178208037,0.09102927806509335,0.03977220425214094,-0.05509874873641371,0.03811850771192883,-0.09585334398193684,0.31558046567557557,-0.15146744531573228,-0.06821922309096348,0.2158740378033995,0.09109892005756753,0.041512123177185306,-0.2836049383443431,0.0680540313673287,-0.13863577589622428,-0.062314028600045424,0.04446912781504971,0.030962398546788117,-0.0738458314167602,-0.05092585277111723,-0.08963709702812128,-0.004790200816008533,0.1212027369391701,0.14244672629033084,0.05221544453697874,-0.06481322245061616,-0.034192225425144905,-0.06767508030772662,0.017119353591007275,-0.009545018419293297,-0.011117883957319306,-0.017993065556404682,0.004246123979573094,-0.006335414903070324,0.0009904034951710439,0.0015056786687983603,-0.006900354816287618
53,0.1247232562199385,0.14020706962194737,-0.15222244615755637,0.12629087263081323,0.067494443193081,0.06410571794865107,0.06310271544263563,-0.1733807274911219,0.028092975029964423,0.029827381248777367,0.04257558457947777,-0.14570916926592692,0.1517436864309941,-0.008944200861781208,0.0050323924382785845,-0.013250633826515009,-0.02056925003696684,0.03225917475611094,-0.2391121449538876,0.0531441314956414,-0.04859099809654152,0.17965610377572153,-0.01364528255975491,0.07417864954794269,0.35228553973396504,0.30833790954944534,-0.039376375965306507,-0.0025261379733324263,-0.17288652963296347,0.19475361429462668,0.13880098687838685,0.12591601635346944,0.20031435135050896,-0.2030832061997774,0.1570268417554478,0.018562563776303026,0.06373833464148711,-0.015494041287635936,-0.20461597011147442,0.07890556290596452,-0.125341974548214,0.18131714526121737,-0.10290534306155807,0.026201536592783434,0.041492453982350797,0.0142403637720451,0.0834134900382332,0.024254018819493628,-0.21730519896477443,-0.03903158708852719,-0.2671923205097763,-0.16161722776743226,0.03326259290016338,0.06546461271654916,0.13575922586363476,-0.0704147804819748,0.020672186375941204,0.06897836804233054,0.009028355830164883,0.013389993899994629,0.027621432878197322,-0.01028589206435207,0.0032292955856041278,0.0014173659996740903
54,0.13530271432260962,0.0676102223428015,-0.23002494410800162,0.0419879249672965,0.09564575219653414,0.07554310743889801,-0.06141907987785328,-0.09925734005170894,-0.011284612451032237,0.12353129460724754,0.10417890516489674,0.0655952179547298,-0.03245285345148632,0.01462252480760767,-0.03587210334965342,-0.040754013442983204,0.06167089063547998,-0.025136696599866885,-0.11298688237794369,0.03158514608539319,-0.10848124413835006,-0.005869003152650654,0.15045886817177745,0.164022218180884,0.1950767122924398,0.03734864897396001,0.008832474010578975,0.06261382955630163,-0.12682905452063378,-0.05802530526637458,0.10884869994971062,0.09395491410895514,0.10542692221731527,-0.0454002698255606,0.10355487651388298,0.017879843102660744,0.0038091086153452178,-0.05693842327720177,-0.05342666398098262,0.1255774910015648,0.009084762076634362,0.048120084324932186,0.011541405700737847,-0.025418038243998763,-0.08133153687659207,0.14724407074853954,-0.1343009589036288,-0.18750682015784786,0.2675556564215104,0.12496764118561146,0.4324007189034055,0.2780989279445641,0.08910933794043663,-0.12994062345281437,-0.401921239941622,0.1064174398986627,-0.01037384577752773,-0.11202368162787024,0.003254933347843117,-0.021395385076265594,-0.0537194129550628,-0.009213092836014444,-0.0019899616457784014,-0.004496581335507288
55,0.1327540759416013,0.027822229000858244,-0.24590031040666005,-0.011413637178167697,0.09257961375515796,0.049365443584017364,-0.13312472932486608,-0.0004791776598061647,-0.06004799321518618,0.14456002563527592,0.05115683088777912,0.17478080681821023,-0.13631169765278645,0.026516244111065648,-0.0493786256802463,0.07717148846028933,0.13100622822495586,-0.16255947120411005,-0.043919663311615564,-0.18239720353187389,-0.18996088643824294,-0.16520256196745853,0.21364083855101543,0.11968098950307351,0.1418026309963421,-0.08698118887079274,-0.17403660871585722,0.111453044163559,-0.1425029985597534,-0.08541376873761776,-0.03713090758880286,-0.0824798616197923,-0.15450311277811232,0.08416671355001004,-0.03028191582031802,-0.03148517102977899,-0.002742726688307072,-0.0151322511263009,0.046517414289893186,-0.10009823760230907,0.007264454738865604,-0.031218969252949792,0.07230445255433708,-0.059880294514801584,0.017947860997377496,0.09033820344471959,0.026064571099847514,-0.017036638759693613,0.06411927643681285,0.07810703575633332,0.008311228061681112,0.09243214902399152,-0.15584458028110573,0.1681788220383063,0.5638243963970094,-0.19528155800079622,-0.02158256257870319,0.07493545775759716,0.01712213721836703,0.0030191223008343426,0.011926388539483523,-0.0027306787865021553,0.007078698346558769,0.006417376738344735
56,0.10730659962184369,0.10136429246690495,0.19603677953091078,-0.09887864922629169,0.283032675298991,-0.012503880852770077,-0.16292923239730825,0.17923078879442175,0.11428825803571618,-0.08677789714344293,0.2580703452285348,-0.06160739884161466,0.1295768735715277,0.17127540646827466,0.10261977381521635,0.3803526205662973,-0.12916926693761424,-0.10913872128797233,-0.2177669777348633,0.19898336229135194,0.04317147522784349,-0.27725101689766957,0.04559819133011731,-0.17779765014959498,0.036454919244722425,0.06608905622763209,0.026543864288965546,0.13281438699582457,0.053477608370349594,-0.13469053118303848,0.12981225348517467,0.027397546419228175,-0.020242904289591763,-0.31175938729743635,-0.019687865739312083,0.09123574587674863,-0.13907320259056127,0.10999725831025037,-0.03840139382562186,-0.13436707148224017,0.044720401598402515,-0.12262642783482586,0.02368307184629577,0.04247882219179634,0.005062930236284013,-0.1419238174744878,-0.028389626412682573,0.0738857841140444,0.05040999162155642,-0.01044676312556675,0.028101898589950214,0.029401576001728415,-0.019091406010077472,0.008045446567613634,-0.0017711866649043756,-0.0012628602392610322,0.006476680328352996,-0.005031591801491292,0.005005299132783914,-0.006515756686501062,-0.00024378842488698843,-0.002787803956855517,0.004693275997668445,-0.007310990554425786
57,0.10328834441664625,0.16075899786494569,0.20225373536299196,0.020656970039502023,0.2755144311347222,-0.03971406642851842,-0.08906786650036297,0.23929179525207622,0.12497240343928853,-0.08903111943288546,0.13344801445414212,0.11061149111682968,-0.043891416411535135,0.2523324847676567,-0.10670011301771284,-0.023261559998266203,-0.059624590079488504,0.105343882901137,0.08851068858721839,0.06127833681776434,0.08639658837228409,0.09353967674489665,-0.006203245589366357,0.030535497797670494,0.11286214664901621,0.04659105800785848,-0.07350255622704384,-0.1015151486038261,0.0781947154552686,-0.06230541195075674,-0.14981614231361684,-0.05190297157187551,-0.18442061296001797,0.18878828464271036,-0.02725374825871146,-0.07336119237588566,0.39400138509623656,0.11763105890442582,-0.1297211204689754,0.20090128128675688,0.09863666639123152,0.14584379806063646,-0.0651080393652998,-0.16064081372413264,-0.019762949048491615,0.39891981331253235,0.04084116002832075,-0.035567411135921864,-0.00915195378666872,-0.0016049630120627267,-0.08299081378251008,-0.057870094723927096,0.021084456708763008,-0.028041098770127726,-0.017202689960575765,0.028268020639316317,-0.004595742791721619,-0.003737922292322615,-0.006185923680298189,0.01788632327210158,0.004550670017660603,0.018857120415537,-0.014787227266574533,0.002024794496491851
58,0.09770691257991848,0.1920773606258643,0.15401172092458887,0.1362458163824209,0.21674374868047439,-0.03936257889745949,0.057083374545923556,0.1562871669097546,0.1247309310185798,-0.1567040474078473,-0.08461342004622815,0.2286198842853322,-0.16455705580787522,0.19172823907674055,-0.13238593523660716,-0.2117291854198642,0.006073929135637286,0.0791721319734776,0.1298012561274829,-0.05847007489272827,-0.0234322995308232,0.13299533654063406,0.031847296810703335,0.1128862284816672,0.18185034567237893,0.18718530299633274,0.16712089610603104,-0.034432545986555894,-0.1625712685774113,0.018988446237825966,-0.27015743476542736,-0.03784086046815871,0.023109340034107438,0.0018217845184718673,0.06779685417554257,-0.020379683223046896,-0.20271049769407343,-0.0727066454015014,0.17597189035693264,-0.06292729922417359,-0.07993813529243109,-0.06636108258126398,-0.022429139441872255,0.21875836970888857,0.10149990969091197,-0.4180977886781534,-0.05879291644983925,0.017925583038546522,-0.019354218807668182,0.018905653702274594,0.10594311974600196,0.02985577695316198,-0.027436751300351253,0.02677189824220784,0.001873238255200943,-0.03378968813159346,0.002065177935344109,-0.0038885909044144573,0.011733369984459868,-0.030777594079663476,-0.00294062882008074,-0.02267706534767,0.018140156474993313,-0.005040039600151484
59,0.09791222316272406,0.18971262160909652,0.08000112360062647,0.19378293372687044,0.19452855817626039,-0.013846531088596275,0.15139457403424222,-0.012192265948883497,0.16187890326258575,-0.2503978574285719,-0.1759748845341853,0.1885900997764992,-0.1095972316705477,-0.03272224863248217,0.03377125949355777,-0.05063748276768193,-0.01920730176836884,0.05886626399499596,0.2672279318902468,-0.20192572852571483,-0.04444312889213402,-0.11233875265417953,0.03329093966356291,0.038255039725727,-0.1468558978205797,-0.09965538985928164,-0.01316000962559803,0.07792860147211622,0.0214338336363121,0.08400705409322763,0.5020762807703388,0.1532616516167387,0.22078092932057705,-0.037656452662800925,-0.011874710830300311,0.09643855091158862,-0.11667497591022549,-0.04250483667772109,-0.03823964781255577,-0.17173301822675105,-0.025449327197342303,-0.08858356956548241,0.04625894080051027,-0.17414994849488089,-0.10359286784973343,0.22270833730996498,0.06242644267439186,-0.006380049951926169,0.008750348625183035,-0.0343871455632781,-0.09201159322984169,0.003735726702861236,0.02279833556845222,-0.004442931892550955,0.013256508561893213,0.01850879345853776,0.00012251380864848616,0.016233635263808444,-0.014238580792880207,0.022076530286666188,0.008193803828799084,0.0063044998714515965,-0.006189753180347202,0.004824662088208707
60,0.10944755496228965,0.148656904707054,-0.03025685971079295,0.205576705741977,0.16162814122745223,0.02233479909919983,0.17045306850279188,-0.21105967693813696,0.12363610706750369,-0.2328862108699485,-0.14784276159850013,0.03873688171088578,0.053734932707630835,-0.3730231715969669,0.16763208254987905,0.12803676805552716,0.013314652000195729,-0.06671998732238169,0.0336951374069018,0.12321187151682435,0.1326473154657961,-0.14175662841187084,0.10720967640278399,0.04333449296953758,-0.07185521623840907,-0.23109629188019268,-0.09242593368839119,0.022348940561374542,-0.07973369431812563,0.07428631970215738,-0.03495511087154949,-0.23584153343603056,-0.2804966955068034,-0.055790586119651875,-0.050436451479117496,-0.05380723428772009,0.0836411786877839,0.07151398538473643,-0.13477046844039212,0.32588756719931766,0.03613146139056664,0.17551265499509686,-0.03157296736845075,0.14540954381037807,0.08964965779685602,-0.19150115252566408,-0.0808612114299671,0.0016434305486735697,0.011152054826245927,0.02692556348284307,0.05725872006409574,-0.0032627474286129887,-0.0061302584733008425,0.007884948665507457,-0.007954961658223625,-0.017793296878604453,-0.009845229522281868,-0.01759826431070409,0.015906827899062892,0.00498044204470414,-0.006179567074916036,-0.014691585615694391,0.003422160260079441,-0.0011036651300471434
61,0.124829447011365,0.1105749318402322,-0.11985055220078719,0.16194393095520077,0.146624831652178,0.049808236320931815,0.05208791503060807,-0.2855037409390775,0.04385495105101276,-0.021161411895054435,0.08553890047263675,0.031837313428681485,0.06455379852371176,-0.2224634889727707,0.05200378755529613,0.03509562759109378,-0.03861416890461502,0.0271058358567966,0.01736508525577815,0.33064880839159866,0.2035043723255632,0.10571983913181485,-0.002918248934318357,0.015646873734799283,0.005841789664438823,0.002186502162214138,-0.05346709014151024,-0.10110893403941805,0.15982428517317182,-0.10986820591757003,-0.4310747692196615,0.0004410473432592682,0.09945364147958785,-0.03190099410131544,0.08742481413904757,0.006473316100401559,-0.11072149644500548,-0.13639513697718222,0.21838736097679234,-0.30126626458855416,-0.03430762307587249,-0.2021883976036932,0.12137586574584261,-0.18026549635930852,-0.09965191218854291,0.23883699551799498,0.042348210906009084,0.025507378873457713,0.02335750119032154,-0.05188473610478582,-0.039778152617310686,0.00035025345590722345,0.010533028366829483,-0.008500738985388834,0.02878231394803044,0.0035071814704014104,-0.0048581197154073386,0.006097158845478699,0.0020606930415412797,-0.0199412298266909,0.0022896201086791135,0.02917189111424628,-0.006285546620744792,0.004863862030721908
62,0.12909151006172379,0.054329861658669994,-0.1781936228617792,0.0877708471416352,0.12431325731596438,0.03972400034790564,-0.06484300004274655,-0.23841082942643999,-0.044292825834657955,0.10890073173312739,0.3137735694797166,0.12430269521873256,-0.061940005810438466,0.0041066610884816805,-0.08909001108532418,-0.06954393995906934,0.061557973420556224,-0.1123162592252335,0.11795938986704775,0.17921437220092581,0.1266465310078683,0.23797447053517218,-0.24022035542250875,-0.19046875636523247,-0.05309310982287381,0.0495052820048566,0.1951780824459048,0.21966453619365336,0.10705917737213355,-0.16192437800267362,0.31056397794382584,0.04231172502707671,0.007233991112957083,0.36690460593567226,-0.21554298604077826,-0.02466589778710096,0.006037308964107788,0.08445963921460545,-0.010193035030777162,0.07144425219174796,0.06415777883653011,-0.013638267100836265,0.012325272956397043,0.06673319286158141,0.032391437679065604,-0.20716430193851268,-0.024433375576236892,0.04565087958454,-0.06601492307404977,0.01093042475967785,-0.004407094508592058,-0.03014658653140645,-0.06089504996767169,0.0005823962233973586,0.050070264705800824,-0.004138917210474713,-0.0015362094413250982,0.007178859798455894,-0.010728084636082783,0.01676424684440217,0.007635330161866988,0.003268631349959597,0.0057900259998161785,-0.0023700301029801196
63,0.13032550993830985,0.01868862107202284,-0.18934232388335281,0.05353678183212116,0.10260470300687977,0.027339485909532484,-0.12986098308139837,-0.1807797473278482,-0.09329003635560962,0.15291308143057106,0.2806377059584511,0.18880552945161908,-0.13969473659038603,0.09421595471248147,-0.11677815214236548,0.0010684195567803416,0.019057443731348392,-0.06959766274864908,0.1435352946353266,-0.2696706538397756,-0.06481933536344667,-0.19732669549665102,-0.11937400962432129,-0.25361507893572377,-0.2698072388324261,0.02582493260344909,0.09768634747886083,-0.2338625212548556,-0.02785471776949669,0.3370239874112094,-0.15595673505761454,-0.0835690567507842,-0.1316794804759745,-0.3190473625015942,0.06214618169835888,0.015317906092430292,-0.015771740914792894,-0.016428866802801867,-0.012752509017913378,0.012708731792800815,-0.015308999262045223,0.06228955789638346,-0.08568103883465007,0.0179216739537398,-0.0023400736717472115,0.039782037910995646,0.03237538657543795,0.042828963621377183,-0.0668965937940831,-0.03819138858777528,-0.08091976775056367,-0.07498799585651389,0.06743407202732603,-0.03903444077104253,-0.1478088791505275,0.059240394879700786,0.024305964671233415,-0.010522086573214257,-0.002013176077747536,-0.0079439130495156,-0.0053573223885155785,-0.008865336971667026,-0.0015459362178693176,-0.016544710296160912
