,0,1,2,3,4,5,6,7,8,9,10,11,12,13,14,15,16,17,18,19,20,21,22,23,24,25,26,27,28,29,30,31,32,33,34,35,36,37,38,39,40,41,42,43,44,45,46,47,48,49,50,51,52,53,54,55,56,57,58,59,60,61,62,63
0,0.1360076500369595,-0.08670957186532056,-0.027904912575779726,0.01575865031443548,-0.11762722301311467,-0.0598643372521289,-0.10738204217314998,-0.09328688404864806,0.018246954110044237,0.09629115472178243,0.018593783263321964,0.1087634795835125,0.04641920811699556,-0.03096763144017631,0.05472164245061329,0.0485733473377103,-0.15709910749862124,0.08862243628928401,-0.14361876078798663,0.02860881496064804,-0.0980774418915358,-0.1110646833388714,-0.03578503543117849,0.08312017119368188,0.2576354289845651,0.07667787554392297,-0.22995860928394765,-0.05824180912310404,-0.1352784881697111,0.153442342056546,0.07051541810616471,-0.04952367434032281,-0.059425506983219335,-0.045750931268066515,0.04300271466116852,0.14141432699781217,-0.13116556489873693,-0.21868532094214727,0.028902443880935394,0.05199680210655991,0.059350449689626064,-0.02846588956967399,0.015264691342859274,-0.08953494008991242,0.020936019335855132,-0.027424340686473456,0.011303926845965128,-0.05869543647085248,-0.1894608135817905,0.11013200490862604,0.1385271774873952,0.19750455769765413,0.035207335052329425,0.0295205588595868,-0.29375970498507975,-0.4306924442575193,-0.21975621580101606,-0.03464267570307239,0.05744104512247858,0.02366757114031077,-0.1038816118439745,0.05150175118614666,0.25911865190008576,-0.12524770962837115
1,0.13626273774915998,-0.08927052777088923,-0.017998266923525547,-0.002317264444695895,-0.09121439542428235,-0.0966042854249766,-0.08973434480892355,-0.07140663934316062,0.021070538160064444,0.20027300662504863,0.030842887962986853,0.09095222676367365,0.014531601802662691,0.007347081365232284,0.05231335798347102,-0.005046544955099241,-0.1550849394227854,0.13296513255409256,-0.14492108621356287,0.05740199326034562,-0.13457410948456644,-0.09354670586383915,-0.05939405450903955,-0.05000582814334997,0.11872180982319452,-0.08430109674374234,-0.07258527000622562,0.005943584351710829,0.02883240063375435,0.02722664429178667,0.026804710670066574,-0.0469341974412406,-0.02996349668256624,-0.06459086680764228,-0.016347676923484454,0.08069935367869918,-0.056156922146792354,-0.0405179643336525,0.08733296904864539,0.0020455525030637547,-0.009366055723856527,-0.05589352585577873,0.01690169973037153,-0.008878505630378855,-0.13596513932117893,-0.12046771398438715,0.004150662015762394,-0.04669097028782005,-0.07580126585702293,-0.16038068663253144,-0.01518870050037439,-0.07740754253597797,0.003860529516970581,0.019407351173319296,0.05904674871915043,-0.04534209771930331,0.03954059084600837,-0.09336876808226709,-0.09868616544103424,0.05145636326778738,0.059973395413060696,0.028788000580509513,-0.7562261193826609,0.23230339031324404
2,0.1369645273877545,-0.10588747034276569,-0.0056741961938411856,-0.006844736713258248,-0.06219709096219139,-0.07994050185436888,-0.0006050373625912375,-0.07382225898053989,-0.039013670991778444,0.02175390720201037,0.02160327595629368,0.07841439745772369,0.039288179474989915,-0.020834069962399178,0.06325769105429813,-0.00514666012021371,-0.15922168499322745,0.13047026987822855,-0.2125223352094206,0.09221231894412792,-0.14398215528336464,-0.09135864139639864,-0.02875631563625046,-0.05420291375721269,0.003482933197471356,-0.10821493816860615,0.028246185993635674,0.006049227193385447,0.05890418104735705,-0.0390747821372079,0.010577818884264688,-0.05292272043643963,-0.0177054087574747,-0.06783042841956533,-0.08595208975556029,0.008043956080024093,0.022906393386553467,-0.0031484079017600614,0.18065869594055875,-0.1414315292098624,-0.0846326967346809,-0.05576722421690753,-0.04205469282012736,0.04376323295732569,-0.19826062378228104,-0.11242328974004649,-0.1228499368337225,-0.00945743033107944,-0.0435041513630289,-0.25316009609616646,-0.10669159478109654,-0.18962810254806906,0.05627503661508307,0.10049018994894691,0.2646898214410557,0.08795427777852942,0.09143033037942054,0.15025406582328435,-0.01232526865551094,-0.518203472205686,-0.08686839751102148,-0.09040980885022407,0.3326337052689208,-0.11520520363718725
3,0.1276119340654265,-0.11602395144843158,0.011062609533439516,0.0037102676678470864,0.009594756815649252,-0.0977723972069923,0.16278981761164713,0.09008969148669377,-0.02140748519858264,-0.1300227117011405,-0.010351456159416822,0.4197583593715576,0.24178280293600454,0.30586990608768955,0.06909178292202925,-0.006584231344219704,0.015220132525139471,-0.015148430561695077,-0.036145275681551986,0.04327894010754914,-0.053236194534343806,-0.12932541838588926,0.12656694309091118,0.03153067784540399,-0.2702231467407217,0.34408769985100557,0.11640445100538926,0.02612553131563016,-0.06995460343596087,0.014278544202703747,0.13571384827657132,-0.09418751207244278,-0.06684615488862072,-0.35025412199680905,-0.264992956429383,-0.03462937490623554,0.11322344285068459,0.06820819252964051,0.07759365166213922,0.11045738269395865,0.09693270110682467,0.026576045286930368,0.020966708126806833,0.04438011847245754,0.13833835723262924,0.09673033405622164,-0.04467531215411275,-0.01721998682978731,-0.013855801167198652,0.07008174229915903,0.015115515727646259,0.03753711165884256,0.06480375534717824,-0.024392065862827488,0.02868816427970647,0.019914375625833175,-0.007978348524704873,-0.04007928554734189,-0.020630466395068957,0.052987619642770475,0.024287729629948573,0.017114353425634436,-0.03149661562819747,0.0026887188352680766
4,0.12225166202127234,-0.14103569744863043,0.03584390066790699,-0.06885392499127968,0.21786374956039817,0.17318776001740194,0.14091975435925228,0.00914660473522802,0.03255867197030941,-0.08942441804252824,0.035675224100842416,0.06686546972193247,0.09298063695106866,-0.037273532131224175,-0.5202955799127599,0.07512779961287135,-0.09247880948001322,0.024777963261406813,-0.39641387837039066,0.0494477657783057,0.04771612379793163,0.12270431629615296,-0.058776347767240056,-0.04022654267179619,-0.014223178271015421,-0.11629964312929664,0.08167242817670141,0.028269590709198836,-0.06320311534347854,-0.013367133219892227,-0.03413924008882569,-0.01152521063723515,0.0998033748642745,-0.04335535597229782,-0.03885184822629107,-0.16686396569492,-0.020327445998510833,-0.12538805286732016,-0.11481157042356664,-0.11870983783650821,0.11669227128478767,-0.024365328054883353,0.006097666372708008,0.08267829626487151,-0.1762188816614931,0.08550104238050558,-0.09688118172425847,0.11051498075464704,0.27926990257920875,0.02365537322311612,-0.03577861898848693,-0.009499874957880468,-0.13646094420654412,0.03982431512520897,-0.12290752525203566,-0.14713412608056775,0.020532860159478722,-0.1843297700587253,-0.04085120078140887,0.054735560706243434,-0.0167912584124444,-0.026875908392614282,-0.006240559604218751,-0.008924954188565419
5,0.13161772139842956,-0.11301249313250503,0.033178504238240536,0.021512722011187396,0.04120574412228861,-0.09036509962280245,0.2469105774790199,-0.08246677990913068,-0.061091854307749535,-0.15274805048613171,0.010383024998870623,-0.05124623087597993,0.022994451626362142,-0.12961437514744834,0.101861768092543,0.023501493097749876,-0.09869426022306024,0.16258313572694527,-0.2265770142660936,0.01800448025052312,0.13164588338103003,0.10585818989511582,0.1728415240768828,0.05310100297900855,-0.09752090889747106,-0.11086735537073858,0.10456305695403445,-0.002094604795793518,-0.04107832950543847,-0.04863605899767337,-0.09369013844453909,0.07246785913326202,0.09856751336794431,0.011433998758074751,0.06163770285550881,-0.18177388048357715,0.02745355085021729,-0.09258962846772355,-0.035965349982276976,-0.20925401991138298,0.006810132473222498,0.008938006029178377,-0.05593980988878738,-0.0778290040379204,0.033642271583633254,-0.12538456727053338,0.13973584226086116,-0.03412138235360902,-0.20888219458228888,-0.007464719832452425,0.06703178561954248,0.10543213392106066,0.31422253620949375,-0.01532999786903528,0.03479455590403596,0.13122867574549166,-0.196571382067439,0.37758911155377367,0.22506993413359552,0.25380330527123446,0.020541679288506493,0.07572382597929342,-0.07529270300359749,-0.0028032426393392526
6,0.1334961303659524,-0.09483082967256995,0.03623103404230106,0.03226972266305142,0.04625623292535025,-0.13288612799048852,0.2321986463312537,-0.07086761841286215,0.013080570903140527,0.08809006174878437,-0.0007860682834131202,-0.0867098525160741,-0.061880687731354314,-0.1148705311881294,0.10808896694230363,0.004104240063802014,-0.014297151348287268,0.1367207669215041,-0.08517732094286093,-0.059382149272888166,0.1965294648528103,0.13789442095817647,0.20074268893595443,0.04226139457487231,-0.0695358464190608,-0.0567765881366334,0.03439996219296365,-0.052278235127482336,-0.06133871668733285,-0.07422305859356358,-0.08540875531980355,0.1058281453010114,-0.007946170392687257,-0.07448761896431991,0.04791811841918614,0.012682516226525775,-0.03595073090257193,0.03155377852227244,-0.07143975040338807,0.15755097554886233,0.04380141853761717,0.07971429185373502,0.02209074307461175,-0.14083901908143756,0.11067068589143207,-0.1092675908306937,0.21830864967016506,-0.04747096013601867,-0.16437608482255478,0.05114511956584436,0.03904494687102827,0.0008144342118235129,-0.0060717092762878535,-0.12842661552176204,-0.03161233223754266,0.028786800906757296,0.19876612802672405,-0.3695054864668586,-0.5045277807060371,-0.14550219897436634,-0.14497681116483066,-0.07392355312072957,0.08722783095707148,0.020690470459600874
7,0.1328534915780498,-0.08089861275289244,0.05025011542612444,0.05991257644347081,0.0676431690672508,-0.10934227420618792,0.26227687119671156,-0.07203989588954524,0.0080499967908116,0.005542407877031363,-0.04136838781631424,-0.15039367494209255,-0.07450411054650988,-0.15418972299809522,0.08492706953258639,0.03186536011056393,0.011602042223945154,0.014429022492195652,-0.0315934794464244,-0.09649604860732693,0.15834418106588083,0.04760256035007851,0.12090391229509845,0.04085005882107958,0.0022439681203640927,0.23828791392487295,-0.1374392459585222,-0.05285828036010207,-0.11014874900974136,0.011758945252803535,0.025210965151783345,0.07768954581301762,-0.23620613316203437,-0.07515178543572901,-0.026199448199515522,0.19581938965406379,-0.012146040491112953,0.26810590890869346,-0.0019307504066689279,0.19501483865362984,-0.11596138478836057,0.02337654921388397,-0.0006697027085723764,0.007294317500856974,-0.2555078322281026,-0.05269870269589407,-0.01209860451212481,0.0814562993835241,0.1947378793361527,-0.12168363241284218,-0.07195799681402541,-0.1879753895271126,-0.3565927042299684,0.15422737041442192,0.06910950898366917,-0.16075586116379492,-0.1139018164838346,0.18663397545237032,0.11893447202121255,0.16505357695455863,-0.00046976585144054006,0.042998896630972935,0.012226709928800122,-0.009411928400040959
8,0.13410682877901875,-0.10296782050299183,-0.01440589351544808,-0.018475931328785333,-0.15067298317063088,-0.028286591130220945,-0.17969304691386423,-0.11360198409769204,-0.03639395185033274,0.07954458462070135,0.0057715552290035985,0.03811400786110475,0.004525935282752941,0.023387782147278838,-0.1023778285548724,0.02899269996928705,-0.05656795381143495,0.06205412747864558,-0.09104152274919691,-0.04644559412924624,0.07948104624707042,0.020968364082864732,0.07851630142478691,0.10472407052541306,0.16994949569418105,0.1349159033754396,-0.24725299277173052,-0.039283077860934094,-0.15007865621191124,0.13920727671323035,0.054515089943986746,0.0060024824206371084,0.008854136555452106,0.006254809904579887,0.04797559505918909,-0.027942545131742685,0.015762223229314754,-0.12220586893304843,-0.18136597746815514,-0.02105134075686135,0.050623273874567,0.07609605453172448,-0.043550793553674784,-0.05630912048556358,0.19977408924601991,0.10625316888789495,0.08385940206290027,0.10449920862942949,0.1982529767291857,0.38071437020525956,-0.08855993451828609,0.08178830919651685,-0.19574237911815537,0.02443765825240323,0.22598608568634135,0.38831536981806714,0.09971193511464646,0.23856845713325203,0.002400083528910305,-0.16314326434372606,-0.09978466640348874,0.0011050164145120882,-0.08056923793400092,0.036200717137859426
9,0.13618171001036947,-0.10631624047401468,-0.0066254976133355015,-0.021867822437137585,-0.1205519712769117,-0.06682591948678906,-0.13128124542883146,-0.0928628689058692,-0.03876066693024316,0.09633219194715542,0.020637109053429362,0.03590690351919276,0.00019755538876325973,0.01714761727202655,0.0024325246855894933,-0.016723012498770395,-0.09583779231353484,0.09652856384452643,-0.09371161364485031,0.0346250639844362,-0.06947763966673934,-0.034453145951264814,-0.02282449801617667,-0.020803132759482548,0.04351523996277677,-0.04302417795656155,-0.045375235410731934,-0.005000373480358436,0.03844977509657428,0.02150906310423588,0.008751186451734554,0.015299980050406621,-0.06135498758113135,0.025064547577170034,0.002823614473458743,0.05642144944745281,-0.002311277992894073,0.030749145228084196,0.04326822600223885,0.03729268588188232,-0.00272421067714387,-0.04914278001917308,0.04639904776596754,0.0030989667888240424,-0.019792940154463985,0.010239240852345767,0.042575441398646593,-0.010079134686056436,0.06274458851129225,-0.11917657190357894,-0.012461248309249806,-0.04892202052795449,-0.02215981822693001,-0.16233855436496003,-0.08113283451719733,0.29207062478832196,0.15740016242751612,-0.13980051534466675,0.06771688291068882,0.42246849996191255,0.44991712185303623,-0.20617800899520702,0.38704162288266225,0.2963593616251211
10,0.13071207091127077,-0.12203047893587407,0.004841303864721662,-0.024423733011376986,-0.062165107324466035,-0.10013325473167245,-0.08113361880017025,0.2639069578255817,0.019182748186082885,-0.050581071601077277,0.04214427943736959,0.1000867090447507,0.08497117358568013,0.06600338035657649,0.1338589091944436,-0.03612148215197451,-0.06490054690766875,0.013774006370658648,-0.08731463360529684,-0.015366770931403817,0.03668650803244057,0.09086741037586793,-0.36911139538698684,-0.1872647093503136,0.22556368096254972,-0.011870066117492379,-0.13474304940234516,-0.014072615289958401,-0.0016607587139470387,-0.20692725176303045,-0.18150750929991433,0.35740203282668476,-0.02800595429211112,0.11318810873815233,-0.0799623026065296,-0.37605260778989336,0.1199118106089937,0.29288118933507185,-0.08542100604071842,0.22484383263259666,-0.061471636454376394,-0.043007806964798674,-0.03495361142629731,-0.00953323200999015,0.11370791093482452,0.04333806729420028,0.009342764083324902,-0.018582730455646082,0.031190600267001836,0.017332733100636585,-0.00477919074310631,0.0026509471046465474,0.0458296547606062,-0.021442718885821246,0.014337057763519314,-0.09684590622505876,-0.07143243642083053,0.018591745221634634,0.02276528154870654,-0.02368015065890064,-0.06053849272422589,-0.012967680838722916,0.008622742576370412,0.0152107347904131
11,0.12404562676258062,-0.1366633048139488,0.024177192102054757,-0.11187182323382686,0.20030509680181055,0.2593918587339858,-0.07814997825049835,-0.03622010849846624,0.054894025948816795,0.15357751439544248,0.04017070496123586,0.06919992012688359,0.015137852762387133,0.013784989965906408,0.24405421200382166,-0.04441539172180603,-0.09758464019169313,0.12338687304365464,-0.0430183291463814,0.045173270507274293,-0.030182716586285782,-0.04637473456540854,0.07962627182804105,-0.04420154524081281,-0.12581619989315113,-0.08125583726827293,0.07953556680938269,0.005657365026010754,0.16025297692045665,-0.12910095593833132,-0.08751885021271869,0.08088190847130786,0.03716332241156399,0.09704989106390878,0.06808996271187316,0.15527164282028239,0.09968279813398509,0.13230690878293166,0.3039812799399704,-0.2274122740014754,-0.3321777487687126,0.22296943110087966,-0.06997889534152191,0.08052111672551059,0.08261305967189068,0.12786020640520007,-0.12144520797673031,-0.007656533833019483,0.047709264429344866,0.3208064548868448,0.037663652852299216,0.10403111760692565,-0.20553842566679767,0.012728572106784514,-0.11439056264777234,-0.0369758070799069,-0.06560936283333717,0.03527540148545003,-0.090413715638045,0.06817649801833307,-0.03850671265278257,-0.05027677380815319,-0.017693264802426834,-0.014287008143954158
12,0.12804927021989995,-0.123601808641393,0.019448308103352182,0.0036124623134033106,0.008489516329428536,-0.13555637067184578,0.11431739893944992,0.27393507803972544,0.040967296195756474,-0.08823579400338921,0.018808338996022134,0.28728501296996267,0.14895282191038423,0.2315205458330844,0.07540569051056145,-0.029595685264887026,0.057560923001982095,-0.04717217303917521,0.08588343988006704,-0.006438548514599303,0.0501355609050502,0.012318686861475442,-0.04364358971011925,-0.04209210132928316,-0.08655020111014489,0.1497236489661617,0.06069724650314649,0.039719942208416285,0.0410050464131733,0.0012011710856541097,-0.16118420629176367,0.04791500296295452,0.058846467044432485,0.40662669622159964,0.3606086251223365,0.21462247889529643,-0.30282095745425297,-0.24335811144873495,-0.13505195029101016,-0.09377163361224236,0.0028589796011816437,0.053848369076866374,-0.0036392335828459507,-0.03154847402417475,-0.11899851176613975,-0.09413786760289321,0.10579242793435033,0.0019527501382340107,-0.0023654240042491753,-0.0731969523438884,-0.07056697964103138,-0.05535852473071775,-0.12471335251119084,0.07018709436801517,0.018524725970936053,0.00945410594962914,0.05325912912371726,-0.00319487496981735,0.029461022728244936,-0.03410595498929346,0.019874812818372486,-0.039645176498555396,0.007845841661634823,0.004924975710263957
13,0.13097388660117762,-0.12764685030843728,0.03919376862165884,-0.033250982680336334,0.1405473885249952,0.03460019117592665,0.15356848818973948,0.007055826057699777,0.03758021363118168,0.017768666411181855,0.020694760035869786,0.1117374448426367,0.03572082661991152,0.09181091663474922,0.17097425719393272,-0.06442499538464237,0.07061126288971215,-0.017599536816927025,0.11297550223640099,-0.10532973347013216,0.2198963499165045,0.24945721507935176,-0.08435960099225462,-0.024824715859122284,0.20732714978948918,-0.2293065722052291,-0.02089038343568453,0.17961057986811627,0.09390280076908264,0.3021393427893669,0.34036570963088364,-0.33697243251201514,0.18883444174382882,0.18103356785502017,-0.05738372146130533,-0.07342416790894309,0.1525026373859526,0.05574892543901694,0.14257671986409992,0.1891076067195709,0.041128493803427396,-0.14911871945532335,0.057251421626090086,0.012845305339576271,-0.16378429149601584,-0.06479823216538384,-0.018978455636640905,0.039355652378943694,-0.03412346826575459,0.0637873209964563,0.025596376089723906,0.08257968029915938,-0.04946741955662701,-0.06588117277468133,-0.02982675756808842,0.05913791131280563,-0.007699351301505212,0.086637067260064,-0.057743758738934635,-0.016067916902538514,0.02266579087924271,-0.00560074311853772,0.01563688240886263,-0.025614145987854026
14,0.13588279178013557,-0.09280958132636578,0.03467591277133044,0.014096785669244943,0.027144890183435726,-0.11689924175313345,0.16631505971448993,-0.05906051217107395,0.03045343623691911,0.1648389643966704,-0.01334891067617544,-0.07298187273241086,-0.08534799053034256,-0.07849732272736848,0.07846475046343881,-0.0021946126517262965,0.00397586419960122,0.042044424085752985,0.07144725315737921,-0.056974547311096135,0.08056353243889919,0.04742426783461112,0.06731064499850399,-0.025511838477181387,-0.05161241801494028,-0.11267070766054205,0.07671190546249462,0.028266293556209993,0.050789000132012874,-0.044687892244647684,-0.04156610859128582,-0.000847309847134374,0.06290845289179509,-0.0014439332582779352,-0.03817418344289411,0.04613320718720217,-0.031666562793131355,-0.06903540628661706,0.004491327200513106,0.08063824456366495,0.11359594296343212,0.005479869220068887,0.036789369621762325,-0.0007824225148272135,0.3188835951544994,0.1395466600184013,-0.020290491570546187,-0.051403351050278795,0.15406103131419313,0.04546420644712801,-0.035096760522255604,0.05721923244918306,0.016332246682153623,0.053022821838934094,0.0071584814278787545,-0.19091744891481358,0.03529842364589983,-0.19892745819193824,0.5251900596117244,-0.36341673724733986,0.34655187518181535,-0.11607011843695131,-0.09893845789337904,-0.007547704222455626
15,0.13290790655430568,-0.08746846522464818,0.04388602720719698,0.04764968193049929,0.04214446577029704,-0.1402809859818644,0.13940947709338722,0.2045333561392884,0.08817963605753679,0.08255413538439244,-0.014285842671034055,-0.16095798105698572,-0.095060040445751,-0.14130704295537155,0.10670268663392768,0.05787850358911565,0.03345016427618683,-0.059562570966779915,0.08699401191518263,-0.08230207322561434,0.09984389373808752,0.05988210090741519,-0.14063555153141355,-0.10882058303045633,0.048659117078653114,0.17340306282781845,-0.09186971384624071,-0.015697518173508326,-0.04772806501687128,-0.034618614137162246,-0.028756160587063012,0.024487884580170836,-0.18468821816754402,-0.11086580634881518,-0.06845014887707396,0.1088297285240992,-0.07369998057758684,-0.17073501024453944,-0.07826566140933437,-0.24840336823245807,-0.04359168093315624,-0.18868176615471938,0.013179873799617698,0.18679691032478649,-0.1887894745473958,0.23890154415810166,-0.43223126727712385,0.03750261394722367,-0.06944471722572054,0.10119554964883996,0.0629583785516368,0.14375413553520183,0.2157463986021048,-0.15446510055433116,-0.08025726972524488,0.21392885718630927,0.034885880237811015,-0.05082690992386084,-0.07479391348501742,-0.03522278054767479,-0.002664788900613023,0.012041415296958298,-0.03296028056991285,0.008911175652132453
16,0.1292088133238593,-0.1283843055803817,0.003511633671457848,-0.0724679945946305,-0.09164401540660028,0.1254715823789961,-0.2495594038135832,-0.12082711244104839,-0.09067996391305688,-0.023501760676935858,-0.003888789952558147,-0.036594237432592436,-0.012892529037832307,0.07799940442877812,0.0195133989821116,-0.017272785588411887,0.06410280122263295,-0.007010874184387422,0.01967820566023143,-0.163472285664065,0.25467426184928954,0.16963977250844425,0.16647642537903357,0.032840840059899,-0.0536694634444696,0.2708717890068187,-0.14121993753708634,0.10570102037329097,-0.07326878291554834,0.13945640752169997,0.09181561355048826,-0.01806729355433393,0.004116477569163973,0.15361784233231834,0.09349678292283725,-0.14669507038964905,0.10589424384502363,-0.0017310801101131645,0.043679559533237745,-0.2670183991979336,-0.1302550095266501,0.03270601791960308,-0.050081699398119364,0.015846055898353934,0.16180746399805188,0.08214333608215404,-0.08194757764294258,-0.07271211130845379,0.15337255202792024,-0.29341674367164,0.06256310743548785,-0.25915207936166035,0.2711333131862465,-0.013027994960698475,0.037001096501161596,-0.21510993206934195,-0.04632672664761828,-0.14366057246551742,-0.08503625514018545,-0.017251038655459208,-0.013924084427054926,0.07279550027680455,0.00044226455635085204,0.08361814266302248
17,0.13503545062399902,-0.11406232447996174,0.0038568169769483992,-0.03383699840610091,-0.13768162200841688,-0.05128576316494299,-0.1735025587979469,-0.09009373500554765,-0.08822360390171946,0.019381221259354056,0.01621566546933964,-0.025086659237133352,-0.03043220868816271,0.033404007628158705,-0.004957300131093301,-0.05856531609619557,-0.008501247958161068,0.03689983643233276,-0.008808267219943926,-0.004988781936285214,-3.32372046344398e-05,0.022705229320409026,0.005769209723683694,-0.034737706589217966,-0.08637608024741229,-0.024524102878881286,0.07005139106169589,0.011066883902905542,0.06170125099195683,-0.018332314250542145,-0.030190364058594415,0.032853414135169116,-0.05133147334499007,0.025684949314860185,-0.01140621265136417,0.06947454146672771,-0.026533467758796045,0.036001673573582166,0.03561424932058263,0.10434208175512652,0.020490973569054098,-0.047854921267982894,0.07731984980493753,0.0031845938660201786,-0.05414048063569904,0.04194309153665273,0.0952571408393135,0.013659329339948212,0.1700802169852386,-0.11807851187695656,0.024004185754746797,-0.05437152063243772,0.047705275735207296,-0.14171549850228923,-0.2450248999786711,0.22780119259066722,0.08754415357512925,-0.062020561040757614,0.07951083612096173,0.11465237082830187,-0.07304756021437357,0.04231125260096037,-0.1527737443526697,-0.7638921490715851
18,0.1067270799110729,-0.11104706269392135,-0.014751593223338693,-0.0012404243242556414,-0.044745154035442596,-0.09506089587287604,-0.2329109518377086,0.7156672040435096,0.14490244289408272,-0.0165025504719446,0.06455075955877307,-0.21678771773291008,-0.05625607943672398,-0.14458086395028913,-0.09669977937261531,0.10458263110193022,-0.015263026394446728,0.12369250576766525,-0.05210411834568837,0.06889484838063001,-0.09107992526694711,-0.09612333154712316,0.34153187330483614,0.2008165718883418,-0.10591438128784861,-0.0825790278689078,0.002894683944514531,0.01238195081672435,0.015245275118924262,0.11348381136925668,0.09082685110335606,-0.08799995373340637,0.0489186782407563,0.06373269454658596,-0.021366925451160354,-0.024377087169453686,0.09471694323938507,0.05967119745207053,0.05698404972401992,0.08025411662709764,-0.0006120518355497151,-0.03296570538032997,0.030322977794853476,-0.028900998609461465,0.023131163727479028,-0.0260389638100252,-0.0036687421544952404,0.010869650822977594,0.004243311390873153,-0.001636553081746997,0.016022976147606997,-0.025022752548369775,-0.020968794975862563,0.009207772423159108,-0.004052516947367066,-0.031865906474787584,-0.013236522700930203,0.017152162752712002,0.004078308033035251,-0.0006657910500820017,0.007423900900916115,0.008720177032249327,0.002343929493994354,0.002074946385488663
19,0.1226371627259391,-0.14608574791922044,0.032898066293263646,-0.12431401209177392,0.21411023578600968,0.2878938934297098,-0.07472445894817119,-0.02074465395882045,0.0440376072705545,0.052417780322517545,0.05222983167219197,0.012627278282014182,0.012205242858791376,0.003745730201181241,-0.0973289961072561,-0.028532341591999966,-0.022221763157788815,-0.05872582048256389,-0.04681323013940847,0.08629916519392627,-0.047214972531702065,0.01826193398184628,-0.03829380189929746,-0.012871721508218081,-0.026995184200110656,-0.0480468355666797,0.10187586346297742,0.05353996583638966,0.0964841805034233,0.1285665421566045,0.12203167549644314,-0.060180204653358,-0.3054822654159365,-0.008764440767268846,0.035869959192263094,0.1861631889938207,-0.10042087373902012,0.30339547061321726,-0.5293012440218727,0.01227123961584349,-0.04565918113290032,-0.062301270398833146,0.056366436346162174,-0.07050252985163948,0.1903409045609836,0.061314372875401764,-0.007192726218541732,-0.08619212838310197,-0.3097724667495909,-0.11152854203928556,-0.015839947554902548,-0.04139835546102666,0.04671167607333556,-0.0192854780409053,-0.02303283262645088,0.04170640918590229,-0.022132666128337475,0.1142935269981814,0.04894548763568021,-0.08634672581210308,-0.007676333478609694,-0.06006875832292259,-0.01597890496861268,0.005237842727587136
20,0.1373663743140185,-0.1120854985515023,0.026578505787765504,-0.016980057154075356,-0.040665145926504144,-0.089957476672327,0.04076802874791806,-0.08407598800423367,-0.051595145269324724,0.03453139421128457,-0.0006718356106251155,-0.026001090246929648,-0.04766089290994996,-0.00992848819692399,0.024838603712646956,-0.038848142722116695,-0.0034782703809327215,0.030287268482494953,0.06306280390203636,0.08010202455485918,-0.12872410436020698,-0.07035810978756002,-0.017111456861117244,-0.021648586076982265,-0.01689781623465958,-0.16290456354605504,0.09307047665683296,0.03630189740751579,0.08084069937143987,0.014960651389786972,-0.0007388867019220979,-0.04436477780558483,0.03203051992959932,0.09168146289460868,0.0024323566006166676,0.024638082274210153,-0.04142049718290153,0.023784818011135356,-0.09918247152968102,0.06778045114736554,0.01677640655223668,0.012402448873465567,-0.02765221019040588,0.06768136218118756,0.05482421422818268,0.055579745896475075,-0.14541072833660634,-0.030491033907734152,0.013638291922816764,0.08115596873912449,-0.029089883107245515,-0.02126705144810176,0.00807208709702927,0.06425324117398219,0.2899740427950964,-0.022498357553466214,0.14747788194733227,-0.23283468519672243,0.1108987997024505,0.209248331121561,-0.20643857352818834,0.7086891104931898,0.14996258974239754,0.06308599547032362
21,0.13092914154183155,-0.1172063524827353,0.04172930494624036,-0.02422157255026953,0.04475638215654974,-0.06273369111194506,0.14331053572501448,0.021342685902875642,-0.009110925885317409,-0.0012669408160874444,-0.03357105075465467,0.18568812949328428,0.05568197663400498,0.2029402945070013,-0.20385107445004297,-0.02509018043936629,0.16380255759812076,-0.12422561454543113,0.35886146099202565,-0.05556287936090436,-0.06401787410263335,-0.0667372221780427,0.21185103903128358,0.20488931750008021,0.21846119464843183,-0.4439449396434062,-0.2461596698095259,-0.2167296992323691,-0.025465107029452205,-0.056777176795854825,-0.0994427556931277,0.11876134486414058,-0.1324670059842547,-0.17688708059960084,0.002165450753288986,0.03994326071665481,0.07039125626409591,0.06700913019250439,0.001456115504086232,-0.1950768493990937,-0.12388853361130069,0.020236131493087204,-0.020955361758349438,-0.03240375868812655,-0.021223015075146387,-0.05582959442981054,0.03958127499083899,0.04092315770935294,0.11917714666623358,-0.06194296876962699,0.05399530031064373,-0.038421509693477365,0.11465953464696987,-0.039674130982960194,-0.0812256212287687,-0.00016345742309900602,-0.0100386308960623,0.02103942480547915,0.01291426777080417,-0.01406204515655899,-0.03130645341074641,0.003412534189959404,0.0022768569774998526,0.016119798116807985
22,0.1357357820590891,-0.08557655440705078,0.03149743926599192,0.003617101356675015,-0.0018799548294812774,-0.1291437190752759,0.07888338314921774,-0.01886704061385051,0.04544576115354415,0.2505904703361962,-0.01629106147519822,-0.07096626179658368,-0.10553551054830623,-0.025107991634221505,0.04090425636566447,-0.0077964234841461505,0.019586489792258452,-0.006785809542466006,0.19213422980566425,0.016251648900639876,-0.11904130358400791,-0.07555593573744385,-0.07574334451212,-0.08084206998840934,-0.02125690492962537,-0.07415389578156954,0.10638643727583608,0.06717319662822799,0.12246070836043058,-0.045391535418975115,-0.009701502857360789,-0.06289054678847741,0.08593758578001504,-0.014324085780131654,-0.12717278499143478,-0.0657171243559293,-0.041168977318288585,-0.20427551584073508,-0.0641295631407482,-0.052061396472929775,0.2152576197932678,-0.05211237368504696,0.07621199207394792,0.004887165847743541,0.29415817120364374,0.1986082092848444,0.013709892403546073,-0.04246714814151683,0.1750612473616323,-0.19586274668218795,-0.17552282146972634,-0.0794703193455227,-0.053860215192115035,0.19782163780644918,-0.005896667666938648,-0.09651200022379297,-0.15767487614185502,0.28659957129750746,-0.31874513479039246,0.23378664650409037,-0.1762418891999971,-0.19161104833369855,0.06261067136259364,-0.005329601528812511
23,0.1315360245875037,-0.09844649212283388,0.06098044629311225,0.004474326197037683,0.11994832441337591,0.016065418640466345,0.1464689997198347,0.0012609741301887883,0.061710090173283466,0.11189893341840171,-0.039355516887622594,-0.06448993133027625,-0.05324098430872115,-0.04233866294408112,-0.5104954973331213,0.10518050240960133,0.06398042559677788,-0.1351754498397142,-0.004188732082253177,-0.02649405726567091,-0.04305361362820448,-0.033683779996391855,-0.191377969781541,-0.09675203252334427,0.0055401826537080645,0.19592734979047827,-0.07588720142215506,-0.009917773742918856,-0.018304266766996563,-0.03623476389473679,-0.012910683612766476,0.014799998447989699,0.10487818246571635,0.1132723762654406,0.06673939387231898,0.2018386996727598,0.011362075039474118,-0.0035629960673190797,0.42153250536661185,0.26397942730590346,-0.1226597172467958,0.08488858865627848,-0.04999454843586374,-0.051463869690708576,0.20895414383983904,-0.03158960538650086,0.03870885754896298,-0.1347044370424933,-0.1365596827305402,-0.048892515083635756,0.0768889769776737,-0.0318424469121172,0.17859340782642089,-0.07058306752968267,0.04880871962220331,0.1365247902791153,-0.02442206909077163,0.12445116128945422,-0.009263184293584581,-0.022284193916299926,-0.015542750863039329,0.07184895403102755,-0.0016312916827686194,0.01689489594236228
24,0.12953292082817855,-0.10468183290162762,-0.0017105337256399565,-0.04951308647724394,-0.1551941592171,-0.019297444116586956,-0.2536766358561356,-0.08405427048604523,-0.05617739575740439,0.18887772146002837,0.0172449753001662,-0.019119623968316013,-0.0553265972782834,0.16293096859905187,-0.26415551691697353,-0.04697785098955255,0.1477441755953829,-0.03657216586359624,0.13354682965907416,-0.13713268916120458,0.16602005084052113,0.13051934007547072,0.12726133976645335,-0.04101259396219664,-0.16009386629172412,-0.005154733753424581,0.0457483899763067,0.04672072883535271,0.027155198927856256,-0.14178858860208954,-0.1252693450712986,0.09797519161206433,-0.0203359920798616,-0.018482160427005775,-0.14961767955024874,-0.1211088824585339,-0.011227827927168338,-0.041781205815640265,0.023824160089040293,-0.005576842878985883,0.056194561049118824,-0.10702802775443669,0.00797583434001825,0.07675226317148168,-0.18656348263021258,-0.11882524384070325,-0.0857318922170843,-0.009249388582326528,-0.4253834528417615,0.11570238653086375,-0.06717246839231586,0.17197232558961084,-0.19728227439912427,0.15752350630811884,0.2083367614393295,-0.13313485956101634,-0.07025155484902107,0.030361326220743175,-0.045345755159183154,0.049906805806863144,0.20134036900180963,-0.02745642279497429,0.026036442933316126,-0.10785543592076531
25,0.1323773144311599,-0.1203429524053868,0.013507689793743156,-0.04138196538389696,-0.15321771756812738,-0.023136872710916502,-0.18743943090710763,-0.10740296291164808,-0.1444359729435661,-0.09545638830447499,0.004377818204506627,-0.08644697168466085,-0.04489432633533693,0.0469100437657022,-0.03705265489825285,-0.06824452992000501,0.06587341864501557,-0.03093843557073228,0.05487287422822873,-0.03797402692753943,0.03979249703479665,0.05173252316242691,0.029864477416187682,-0.020517666376168336,-0.20251218539024224,-0.02211646693878474,0.17606823311312386,0.01692013160522457,0.05667302318855029,-0.08360618250388344,-0.05135583795390566,0.02050915342581478,-0.01455886173101971,-0.008604255181574046,-0.04411099958605249,0.06685723419866602,-0.06561145382757695,0.02580763975818188,0.07768233721783045,0.1540434949868843,0.08037032133092549,-0.08820304995820716,0.08257077451881331,0.046915717760336484,-0.1584797793781712,0.0008047640454874674,0.06285957779766199,0.03969960287363474,0.09180608161689086,0.005394995337909221,-0.0014627752348136333,0.09249524154955008,0.016344083365215027,-0.09821663823120563,-0.38750296780000704,0.030479526274311136,0.01068299773094862,0.13566106849376164,0.17793390334139617,-0.18227402939576054,-0.42142697029241405,-0.010212659501636648,0.00958573912524665,0.46020019910813403
26,0.12499310155841707,-0.15073968365516055,0.02279400071293572,-0.07399268442771743,-0.03251136353181287,0.07554340829480384,-0.18678261624826073,0.19347344312183834,-0.07643535577765562,-0.2952124619901143,0.008644225966548104,-0.15836403640227092,-0.0023701269305346456,-0.04743172661309981,0.12559476265160963,-0.032206875221302056,0.09506337245385901,-0.16016385611967424,-0.009060001894144132,-0.019304323643013405,0.12698053566750478,0.20456116868019192,-0.30591529022938346,-0.12187740070472809,0.121328888566332,-0.09669434346887049,0.11165409488796285,-0.09798477759775637,-0.08828807066062277,-0.03835125117204738,0.017801929609787243,-0.15774830846574983,-0.006046582245150218,-0.41801428044389155,-0.045067918384842046,0.21050509192375075,-0.04718040328375049,-0.13110752782304813,0.13009345596600652,-0.1716557245568585,0.026536979971335348,0.19990941257361,-0.05156750620522221,-0.10117702239382684,0.11446480003841199,-0.08784232810108539,0.19405309025218015,-0.026146277021430755,-0.04101451451666718,-0.011857518073351538,-0.02867458158560756,-0.05983726248078834,-0.11940377844380243,0.10304345371829843,0.1037256286068037,-0.015217806492946379,0.04435587542919801,-0.06482218215807692,0.04749797350722307,0.08069823631926945,0.014957109625977016,0.01471693347075334,0.007910765606182424,-0.005494947943269546
27,0.1308646228277706,-0.134505695524575,0.031996146738795424,-0.03545655872693303,-0.09117585054004794,-0.011536364354893965,-0.03518172273409517,-0.1111127440004847,-0.17312919310659314,-0.3074624471288105,-0.03490460128588802,-0.12057648088778598,-0.015745982389611373,-0.0569519023421075,0.03084521731979263,-0.024706802284289786,0.036550943859328,-0.07551069751252835,0.0326131091839955,0.09113642825245244,-0.15954666535551862,-0.07333735844419603,-0.04771048066856015,0.0462460615464836,-0.05738457005941319,-0.04759234365227978,0.0961026335648699,-0.0462056082407523,-0.0265537940048681,0.009899956866540965,-0.02119722772244763,0.01008875393077388,0.011432539774213213,0.07953980299140578,0.08385043550132229,0.08011062185256256,-0.053355083161015816,0.07327189977748691,-0.06016632465255978,0.1443127387757728,0.0381465546019053,0.038106420339656645,0.01870478200084321,0.01222119538309694,-0.08161827759322303,0.061335959965779396,-0.02606062435699214,0.09838602179093048,0.19453321598793813,0.11746304825482075,0.037356355607414474,0.11363959311052306,0.15993015740737676,-0.0044792855974349925,-0.007176761576522694,-0.1108734255628929,-0.1833587407572611,0.17235308661179058,-0.4171430964217423,-0.1998528870919318,0.4857906813656644,0.17287236482174037,-0.037499330708886794,0.002777583230728381
28,0.13104020822840493,-0.13046884891465083,0.03872179700741593,-0.026860386258092266,-0.058560943498434534,-0.018376328461890464,0.047354843840689366,-0.13279170251304934,-0.16942647334862962,-0.31181275523294366,-0.045856551881451185,-0.12205664490670418,-0.021136785850122512,-0.06083129743055849,0.007173426590815289,0.003557055293725908,0.04623491941002106,-0.08096298504892163,0.07780003104825245,0.09750335482488284,-0.17196193996964135,-0.12136676888962994,0.00454670933208251,0.10481290279377836,0.012323100460562647,-0.017621617618644336,-0.0021510503454491015,-0.02933860719245268,-0.04833957262849811,0.0507730163265305,0.04731108183190063,-0.021605456478338878,0.07473275211894825,0.14879554751233212,0.08179540861099241,-0.006907123886683075,0.015265188225771425,0.032970461746391955,-0.020494513662021256,0.11574278265867877,-0.0385501383413723,-0.011543382121420614,-0.09811800574495047,0.051121464554406394,-0.03136562122232536,0.030080149390724165,-0.2014378408138255,-0.0037370135122571507,-0.06992882087896563,0.10467971913451678,0.08009287288920242,0.051691039225680455,0.05063575922643916,0.0006690720913376316,0.31631400136018495,-0.06851288558149049,-0.011132743706637027,-0.22979932286856578,0.0973564495607526,0.17604034743641767,-0.2553945496095535,-0.5453595987506799,-0.08420720389043929,-0.05448842637691639
29,0.09814219355503359,-0.14085549804956654,0.05072487293677546,-0.16495259504258822,0.36431372194067785,0.48797478316878096,-0.09445155660151439,-0.005551000252259435,0.08778785059205334,0.05998643312940062,-0.006566472860492028,-0.05295885772652887,-0.019263123781847788,-0.02606943266129729,0.25975924216354074,0.006948962280949156,0.05501832491841256,-0.005686841525055053,0.12921768209343204,0.04534078783845957,-0.08007594467636964,-0.14233663869493096,0.08288874688717748,0.10704427679647846,0.03197243687668998,0.14497180926869663,-0.13093938856216622,-0.09458367876041723,-0.12979377134112474,-0.11270423830376666,-0.13339432245017913,0.10939441213914436,0.06450543355113071,-0.03588578910034061,-0.07480988928196688,-0.13616188364618054,-0.07209787671354165,-0.2547014020818482,0.04595806424644289,0.22142174092199596,0.22226984756822893,-0.13149813021373918,0.0005161077646234288,0.006996478808473067,-0.1331244507545955,-0.1261557269848347,0.07656095329668192,0.03267020460159848,0.04630396633208762,-0.09789305552463753,-0.023085823032381533,-0.006216221713271575,0.08432763815394607,-0.007509717493167863,0.09079283378014202,0.08693762618408729,0.05231285106027428,-0.01426618696687263,0.05811543065683997,-0.009788496287562282,0.02336744952393288,0.05848352439402672,0.01463914151983764,0.0008598521614603394
30,0.13435421227115574,-0.10819596673426081,0.053205734377522226,-0.00010373403140690005,-0.00925854935690471,-0.056481441164192105,0.1394156140315565,-0.07893490458924891,-0.09025120912016653,-0.1667380812720978,-0.053885101266256445,-0.12426811898853682,-0.05382405669363767,-0.07212480344398611,0.013474629194240138,0.030317179609180858,0.03988273676729841,-0.08297287422265742,0.1278851829685976,0.06872820926968454,-0.2008831364476969,-0.1640975579084476,-0.04654445437230981,0.04302888023534468,0.028988644032552552,0.138629730515443,-0.055805049721254024,0.01295349981655844,-0.03408598578672145,0.019593734168235177,0.06395488631888469,-0.01898863157793279,0.11295589804255025,0.04593665438151544,0.022226875651939235,-0.3515383996079673,0.13835162774780027,-0.05750618973563566,-0.03315990404646571,-0.17372660834540038,-0.05058147947634868,0.025323608108590967,-0.04853951637752943,0.016448583490788093,0.0838829955063416,-0.013665635446423574,-0.030549155476048476,-0.07263767979262939,-0.30698050524485765,-0.06149044153103754,0.012575455396682728,-0.1939034367786608,-0.43751529977932757,-0.01918183216035493,-0.3771074549452019,0.10426388391486022,0.10223895326359445,-0.01918094159475464,0.031059609875967842,-0.1156957506638357,0.1011798173787955,0.11749793637451089,-0.05460708975364924,-0.003981063709227212
31,0.13628515722242224,-0.07978755654413094,0.04508072764759381,0.007502627936383658,0.027552042235490876,-0.05692773303861422,0.039471984874521124,0.005823021456255875,0.07051099226102439,0.23641274163898082,-0.035033408745022455,-0.09438897339781399,-0.10100411258046843,-0.04402562799554528,-0.05979591103255875,0.006971678055050792,0.005676485490815567,-0.062084668899496445,0.1418709773148499,0.00655620300300952,-0.17769900458491245,-0.12927677089110662,-0.14710348529980707,-0.1112348492763453,-0.04108006696714128,0.2661348615958741,0.04583463226245105,0.09176407110984086,0.13962990976235057,0.04042366204277763,0.140835747491785,-0.05806263504192967,0.012640944292542894,-0.04898182173714437,0.028638282634668277,-0.15864930631278945,0.11490668769996645,0.1708799627941453,-0.11583449570191298,-0.28303126385060917,-0.02986374427901327,0.16504440561245945,0.09355778946745247,-0.09717423193806002,-0.24541103618490692,-0.24402163529672122,0.3775442759934228,0.13995231026379212,0.14984900750383398,0.14494161588718632,0.004016574686225405,0.19732846200657417,0.18774550225723574,-0.015897916705851643,0.06892353011360891,-0.10085639842507277,0.042680736742596787,-0.09820355678391876,0.0674469193384851,-0.014802363157077982,-0.02272897367810231,-0.04877205247523048,0.045515566471525715,-0.011769485785115719
32,0.12160112480265349,0.09918228129960269,0.14351683857834854,0.16868017781914227,0.12218057375410983,-0.12094507509063371,-0.10103027953577089,-0.1104884375699761,0.30217264041646325,-0.07749982635571538,0.016665217793926962,-0.24386441330778033,0.12931541343479194,0.2128867967877134,0.035866889881259086,-0.12973229267043743,-0.15086991016337528,-0.23522340053597407,-0.1038845596967476,0.008592042507414799,0.14590573543925056,-0.20803433233632973,0.021395759155480143,0.006749773733861597,-0.05379665046213061,-0.06184045626414729,-0.1364676323070767,-0.024499812143862,-0.009683121902850858,0.06301502767121064,-0.12488107588178422,-0.1123677934120701,0.05713988899250909,0.12445414157336267,-0.15447564783952972,-0.00883450402135702,-0.2258832711443625,0.2369083907130997,0.12896382732854655,-0.1283074282787798,0.2050399288416922,-0.003147968674512315,-0.21785014642789607,-0.02498042618391184,0.030500891647411623,0.1810078648091865,0.10470731122085199,0.29838602266142983,-0.1140579854463035,-0.046614910938499315,0.02514161709101446,0.003408465839758845,0.011409645228788116,-0.007551987880197109,-0.005350567281620602,-0.00045095140506730413,0.03415756959933078,-0.026762199182698593,-0.005269287352926949,0.00023673519041606667,-0.005179314264459306,0.009982998034380717,-0.005584839290635274,-0.0016345247911883631
33,0.12233776924290825,0.14045212197960552,0.053387214392277005,-0.02958022743676336,0.12567000293769418,-0.1996467657477244,-0.13588262935902218,-0.12495128905127699,0.3103397458478122,-0.04816350295225085,0.057888558706422025,-0.18544297111430308,0.23127093906231364,0.06854805665682667,-0.014119250789225997,-0.25407784638035563,0.0229610886403425,-0.134587456497792,-0.03186631848193121,0.2199166989916102,0.17196398554566586,-0.14799180569369963,0.010426295807846708,-0.03842184279980441,-0.05291693442610298,-0.06881567226247123,-0.019361396841862867,0.14307882594878343,-0.05534150165690281,-0.1519131705500599,0.11493720304740587,0.04516109224200897,-0.07673963277272015,-0.08436502433531677,0.21478554875275627,0.00693369311294869,0.333278060500411,-0.24636435311614624,-0.10259363291029155,0.1193102007763004,-0.11022754497987128,0.03279651639855209,0.16688448028347666,-0.09493067913560947,-0.0922420437631616,-0.04618076114493572,-0.08305559721320033,-0.28097588018713693,0.07550425499621699,0.061984019137483706,-0.06689790929854265,-0.037833326472226085,0.008505914541854284,-0.018481761653122833,0.009105569800563363,-0.0010435037719712821,-0.05513808583610936,0.010106322364110909,0.008294925391544847,-0.005552421701454549,0.004610208140868141,-0.004472095100261586,0.012564019527784496,0.003270087962599863
34,0.1138695176956565,0.1872722730475307,-0.004810651601183195,-0.23638802116048693,0.13166233137496527,-0.19022604576320115,-0.11104684992441516,-0.0728134680164799,0.11766172927141277,-0.03742718998700766,-0.013511589861659653,0.03756723713887944,0.2662639530893196,-0.23863374381289187,-0.0847562250259621,-0.1659300966487153,0.21364314340644888,0.22248569770024146,0.12833157397409012,0.16267917870288806,-0.06780163504427411,0.15809965845368135,0.12188473084745394,-0.020652915505854727,0.29668687107561226,0.16159421195714224,0.25661127649233756,-0.022737193769780742,-0.04015754811081643,-0.008507774517386407,0.14791871480787308,0.14316452083234393,-0.03818905031005684,-0.006910850582105929,0.0672096966689036,-0.04699841571066357,-0.21107821873996163,0.11774696081775808,0.15122032999700302,-0.08109929740347198,0.0730432681147237,-0.04956900591684872,-0.015507167599519492,0.1621828761198683,0.1600935948068703,-0.12049971001109713,-0.06751568437929796,0.20800324642962328,0.0030107364544676926,-0.07116768118910294,0.04050380266751559,0.08737029647938607,-0.027784118762615988,0.001552167339470896,-0.00598632929152193,-0.0018581115224251266,0.06032472469343661,0.024364242882584694,-0.00904535296183559,-0.0020719681448464846,-0.005039786766222215,0.0012405040936461081,-0.007448551042735452,-0.005029625306358816
35,0.11630694235147915,0.1798019872366204,-0.07831201910413683,-0.23371451655478614,0.10368991778915412,-0.17110279267599088,-0.08736021788719373,-0.06057070362107863,-0.04057301787701505,0.047202800024704505,-0.09989412308223129,0.06560958116380035,0.22517748844019272,-0.19367054423237734,0.07693853752381793,0.18330574401941455,0.1385301390827186,-0.21767679079133762,-0.08303384803847354,0.0678271623521628,-0.20512843602265837,0.29054204084613594,0.08706465649023662,-0.04134727532676863,-0.08076821483665732,0.06356843717698663,-0.12506766822677323,-0.21823817422057312,0.13109082721699253,0.08039324069787286,-0.19234475544692986,-0.05008572066534106,0.18529185450025598,0.12235733319636367,-0.25455666589525583,0.15154651819890202,0.17185588703147342,-4.8412392672919635e-05,-0.08186292670780906,-0.05260656956163498,-0.040712112511744586,-0.14506947592648395,-0.005302106317240159,-0.16909281834742312,-0.13178351188197762,0.19216498087551487,0.15099957884830326,-0.11706643094422299,-0.04030093147024488,0.08167360079547817,-0.05265115936932169,-0.10785209818276155,0.019411693810353903,-0.0002909334973386149,0.007380706551780726,-0.018169503416333437,-0.03581378064173622,-0.04111209599886598,0.015714232102369746,-0.005450722273256485,-0.002652240599975264,0.014025553933102064,-0.0030754412711760312,0.014534703784171354
36,0.1220180822928942,0.131314211133688,-0.16041141034764497,-0.12062678272247,0.11978815218996548,-0.06603872947346907,-0.08943872479248506,0.04131170265755279,-0.13836421581741992,0.09073719657950707,-0.28055466663164125,-0.015788857030752085,0.16642523911732443,-0.04189499804961511,0.03349318896987423,0.26779441453479325,-0.22180332632444877,-0.18062359677484455,0.08653207488947584,-0.20223915013056332,-0.02005613026124124,-0.03463083530897723,0.12535285595047488,-0.1425247152184387,0.04878508338261528,-0.11882752639993469,0.06048106173664368,0.3141377776730874,0.003584565970641579,0.12894432298913464,-0.11440402684098344,0.022093252255067197,-0.09821985096698245,-0.13622696203767204,0.14148971290130036,-0.14812185941390021,-0.12589268297462788,0.02075078654797384,0.004879346840477028,0.11785997697907034,0.17086974549038117,0.36711595399285646,-0.07737356250837506,0.05852734881341836,-0.11486132559395282,0.023281419193532465,-0.10144010837870115,-0.13013958549745305,0.01062085554758328,-0.013307677783036959,0.2181880612020158,-0.045001369107509376,-0.0139688368349936,-0.02069699137105254,0.009079934488933494,0.05358292750761081,0.009222623319179057,0.06649027965420429,0.006513511126241461,-0.007411679811251584,-0.0027019683008479567,-0.025083018454047784,0.014296180826021562,-0.0017547163946662336
37,0.12000872933819956,0.0985081601246336,-0.25033074031971225,0.09154206927969318,0.12723173719736997,-0.02603623364222304,-0.02049676789370125,-0.006043808540526186,-0.19726115755919046,0.05388918730195086,-0.08356188719295096,-0.12950879894030287,0.10937237710078496,0.14122799169512826,0.03279308384116854,0.28975983390359494,-0.10769831630957087,-0.015244043747516159,0.07815740783255852,0.24072368421666296,0.08887716713051219,0.0794465006594309,-0.09253028438222868,0.13394808506475822,-0.0652372058890125,-0.021735251566752635,-0.034837940149627954,0.06632276736442459,-0.13569965986981353,0.033542636215199734,-0.055193215182209196,-0.04696231641573044,-0.004771235938935248,0.010157228394908735,-0.013622799061830101,0.005353243980032684,0.07207965609246468,-0.05962052370182503,-0.020629901277209747,0.08225028122160342,-0.2943744138529193,0.043579046020926236,0.0361485742152044,0.059513009142570066,0.1329885845981124,-0.11541702691966499,-0.05169700199070193,0.31161087483474703,-0.03749193434800997,-0.19237957541764186,-0.4195851539310488,0.27913839624715375,0.05024272039296945,0.055293373083378596,-0.08879997367878921,0.009464432507761938,0.026203263403987556,-0.07244491640226236,-0.0014430394738868015,0.012811747540434706,-0.011671804380900541,0.01898329658061647,-0.013161308995740612,-0.009882789275647064
38,0.11512493263358686,0.073199241613791,-0.2584553293163693,0.1953816189217189,0.14420212906720015,-0.021103833924823057,-0.02911399952060195,-0.007405046441682353,-0.18583035034692955,0.1437688005070294,0.14902310710299158,-0.1246409196784333,0.09404302729441792,0.16543097188958278,-0.016406293402898602,0.24178124663586423,0.06367588140806668,0.2013959607794452,0.13500460714578602,0.24918768647665215,0.18110281769349357,-0.029529088016544584,-0.24639973229284057,0.16925060327232158,-0.09711191302691001,-0.033750258459997434,0.12981920301748923,-0.17681674690509147,-0.074219635015766,-0.0351565707530508,0.1884167970869076,0.09079853070817523,-0.08100747939386568,0.09755591133811534,-0.06299323836328827,-0.0213083126093498,-0.0756901051472253,0.04393317252846472,0.04659990895656686,-0.11106465479134908,0.15112132990489818,-0.09564514646947556,-0.0679516083429057,-0.09504681974115592,-0.07837010671868808,0.033385875468362455,0.044547976692971475,-0.1765496803160543,0.06734594000533205,0.15046640795531413,0.31467929389935806,-0.2200315969169918,-0.03659680669119425,-0.005806894178361513,0.046296883907710806,-0.016238425040003626,-0.009160663754648884,0.034871913505355734,0.0030543510308391197,-0.020291861933651165,0.015657009874666977,-0.010632388404077708,0.003558122199880085,0.006868528703643901
39,0.11467220531621017,0.05172678845425684,-0.2314901794722263,0.2358183503677688,0.13616124927746592,0.011864539668145498,-0.03408387034044192,-0.02811394873163479,-0.15169374625139082,-0.0363352241400093,0.3550424512683817,-0.0319252753017925,0.07353202302041154,-0.016914046709037626,0.03441674881305368,0.08816102068790274,0.39247666050189073,0.04224085518179617,-0.1924826816734336,-0.2788804273434685,-0.00830611399587447,-0.3063787075283125,0.15147929577482158,-0.31271072859688653,0.19221465691274664,0.0024255309972686934,0.041173281982604996,-0.1309183145933442,0.020309298527379616,-0.021668775910676775,-0.13041906779113197,-0.1971579420368208,-0.03391608142848121,0.05498588336699458,0.07065427509106051,-0.00723389056786021,0.12361170611676668,0.017199052758085198,-0.04688396987669578,0.02157484219345618,0.01677020518632672,0.057736565138806165,0.1293888850469345,0.17454115896986583,0.03203402969009394,0.024085236271511833,0.050382417425638426,0.011381364730986249,-0.02645440006691919,-0.03853624738450337,-0.029364320392630774,0.05794936650513059,0.01229064211145256,0.01957292373559682,-0.00040317259980249265,0.016490243612350988,-0.018030836402577462,-0.014358368317945958,-0.0011161153212175812,-0.0021345153243170767,-0.010180181077417014,-0.0038469632901455553,0.001507629491280917,0.00027012848398762354
40,0.11724643370067067,0.12198877189116596,0.22132618360856182,0.2303715659088179,0.09024001414721215,-0.02737155678809288,-0.1023373559867301,-0.05811235037080425,0.14160614299590613,-0.10625854693383151,-0.04443624374909429,-0.08998963036780784,-0.027163123027373684,0.18815834293342165,0.04323320964761971,0.14827252803749497,-0.12277350709879002,-0.08243633809894217,-0.06425664091823542,-0.1846443480298078,-0.14201397223452725,0.15646565533160137,0.042946999197383096,0.03455731616814428,0.006196929386255167,0.032645249746671184,0.06395618289265216,-0.23339032204497184,0.11351444596582266,0.06802860822507933,0.058516787870331384,0.022099523631402995,0.09382703107459597,0.010496952950974914,-0.19054094601148672,-0.0768251419255407,-0.25099247263438323,-0.026465234616926625,-0.10115622388681501,0.010396398231654516,-0.22798325177358503,-0.03339092815847182,0.16999253827340954,0.22333222684508688,0.1327335968238934,-0.3675681460425997,-0.08997392339692063,-0.3016669277973246,0.1705754486021222,0.03661344585302238,0.08344677560544181,0.07027416443817143,-0.03563553308968312,0.02859180654472756,-0.0055405911709150366,0.03914446851616698,0.004606731700609821,0.016802337700199704,-0.029167459717708857,0.005017271079645447,0.006731768226830165,-0.010772229369286644,0.006440679466681858,-0.008428500933027265
41,0.11847933558100832,0.16841274851735305,0.1671437583621315,0.026167862438393436,0.13602574760115974,-0.03331613217549349,-0.08756894415620375,-0.061405392531092666,0.14671360997926158,-0.1664479553855775,0.10030979666355609,-0.016796269331863033,-0.1448583271440008,0.20052007260627902,-0.0476751982677463,0.13936766137989964,-0.16672559106208482,0.3664041330486404,0.19349919999549847,-0.2786252884232865,-0.17700146333689387,0.07886534932538067,-0.10124101812231096,-0.03889261562781454,-0.009816600011184298,0.026891399653031584,0.18919114949900043,-0.04991598712303055,-0.11015376084114178,0.26562230617920396,-0.1413120173863184,0.16908521362973505,0.0842392123660298,-0.1365898095999834,0.19965540125932418,0.10465686703289248,0.28852108181199676,0.0002854251836212117,0.004632988566793242,0.010783332046605469,0.06080644761658989,-0.08752929133229677,-0.0034148309443215175,-0.14478425050163113,-0.07835621995723692,0.18953710903345555,-0.0012955144769398038,0.08608419076766309,-0.08202918571294504,-0.051433860661539904,-0.061189721049365875,-0.01161635611535921,-0.02153025460148466,-0.009657336830901558,0.04119473756187156,-0.024987208532441893,-0.008370368621155755,-0.009346877671781217,0.01763777654425072,-0.012365110264042838,-0.006353867617248545,0.0103121822092621,0.00247185579068637,0.0032722557833191543
42,0.1145248558904333,0.21151135571461854,0.059894707666961824,-0.21893541841581718,0.09880066380683906,-0.12770787191509989,-0.04700947376292918,-0.027836419471654678,0.05685783793304364,-0.14648200900531613,0.1670201571171464,0.1150633674158602,-0.1859819521235731,-0.08153092792322844,-0.05776244814020101,-0.030934040337671224,0.10707326844959346,0.33006857228911557,0.09561895368296061,-0.018730263015910735,0.04321522115739762,-0.04456127791779238,-0.17935777900150893,0.08327757169163,-0.18057339201409547,-0.054425142976607166,-0.24882586027795572,0.21211759418457066,0.03688561533710828,-0.055953277531963413,-0.11438210998863883,-0.23343913790357376,-0.08010138747982296,0.019573308390571614,-0.2575072082661065,-0.019206117305641736,-0.09662525301336522,-0.1450310247308493,-0.15159857744621147,0.12066489190124585,-0.1967817911706719,0.20979336912512508,-0.18123719202638905,0.21228281592499504,-0.011146729716982606,-0.035494848880219074,0.1250082506369437,0.055537121447053764,-0.0009701928910976348,0.033993360363618344,0.1476715258500635,-0.10082895193255358,0.05702423513156722,0.022061707683725756,-0.037404408509157855,-0.0053067208800616494,-0.019167322858806332,0.011608947897534437,8.093902979776357e-05,-0.007183302306064253,0.020780291716915082,-0.0359642605607588,0.005204286111941771,0.008608228517630996
43,0.11633019476828857,0.19843759383154666,-0.026486337167772035,-0.2800066881869038,0.10455808364419646,-0.07715771328188852,-0.02994653678612343,0.02114780615017535,-0.07329001534491124,-0.07780511949539494,-0.05956397869661661,0.14228119558563662,-0.15437296684889285,-0.10193237587984784,0.019528628447204124,0.017005111592718145,0.06683731639669964,0.02056394526105175,-0.09674157790687092,-0.21723149455430218,0.09229162660717143,-0.17633661138434364,-0.17148706702409428,0.0898278060282014,-0.27193650138224157,-0.09124698055136896,-0.2148081055651172,-0.1925745386818085,-0.03379843787257723,-0.06009818310789959,0.16797368452140726,-0.05428733873674256,-0.025212418258323745,0.021711351647235033,0.17425782910356855,-0.12825531233193577,-0.17658368714376954,0.19021306585928957,0.13982573021839909,-0.12135355291624911,0.15455498649004717,-0.029523253812609923,0.22018519623662053,-0.24242483027550776,0.04202378139279578,-0.028096669512607045,-0.17077005983380045,-0.14826759571493614,0.03385739197557157,-0.05817296169687233,-0.2203966381093218,0.20764559441323066,-0.05403026022692367,-0.040517710441242194,0.02901338852772309,0.006680606331379603,0.03078204478784214,-0.001058241954579986,-0.00792954345406198,0.021396449642572136,-0.016170784507511443,0.02452319588562442,-0.010761463142106222,-0.01753858254671753
44,0.12355235391703381,0.1562407923348015,-0.12479136781087405,-0.16307964773291833,0.06180516150612693,-0.03627725091957588,0.001134900670476862,0.07784530064087997,-0.11602299255535803,0.03816367051432959,-0.28080429158561554,0.01780943061720694,-0.11683316461595258,0.05354288361299246,0.01966919668273381,-0.09063979817051064,-0.14682931054964596,-0.1288701932307918,-0.14168742684626587,-0.26142461065019834,0.028654569802229343,-0.16147070378502384,-0.030601418762710348,-0.04719281230339026,-0.05047563613247813,-0.05362926040143742,0.08032149208855228,-0.07442863060545664,-0.02038616887444468,-0.1651499385048463,0.2342507128074172,0.10339491800485094,0.0014758601111015748,0.07546457687322766,0.042409739948141505,0.19725375318931707,0.2532057428775254,-0.11037143473977346,-0.10011271556045567,-0.01031028239819598,0.029679121466936707,-0.3039243566318986,-0.1786868570046457,0.21403597104714833,0.1570639781940143,-0.2133291321662921,0.09185702061547871,0.26796187638733304,-0.01387403858765883,0.09228545506919383,0.14548073748676846,-0.156617545144646,0.014559170977630598,0.08511858967384013,-0.035328339263638986,-0.007667379855410793,-0.03653208127247705,-0.03006490821277359,-0.020939267341702837,0.012803142833597847,0.00527221112743087,0.007867770777900365,0.010265277273793755,-0.0001932445475892608
45,0.12118260834843225,0.12092634454781691,-0.2126073412988135,0.041565221089299324,0.0962947441117301,0.058341313726271216,0.05319727287994838,0.07606758477127996,-0.14674009702380286,-0.12945216326413717,-0.2520171078752632,-0.05218395227689456,-0.10694941891047362,0.09752705008483366,-0.09758674540326236,-0.29149809383048275,-0.19449205475830883,0.11976087197097009,0.051821338678227,0.011782161975736914,0.014211669769156693,-0.027890252495024866,0.07971199440224755,0.0662714857118977,0.24116017099711895,0.13577460632739724,0.04740038777108146,0.17800898347696223,-0.012686682455381487,-0.1541464188410896,-0.2730444634456552,-0.2583617636267166,0.006166937530678665,-0.004409298971754322,-0.06934481412841084,-0.02024662818169208,-0.10651804108205148,0.053130789880552545,0.05894668047511814,-0.06846577351204154,-0.1716883602201951,-0.24396562122901316,0.360360730175951,-0.1582066692791194,0.009204163306017143,0.1413855276095202,0.10554413530059438,-0.0887438293962074,0.011970159242076464,0.06655977411218428,0.11657677595383613,-0.017060427094954263,-0.045713489645238414,-0.00789529155185413,0.0912791340332629,-0.01174816033431865,0.0022775988222558594,-0.010585953936629403,-0.006535871494204204,-0.006192353913118898,0.0018342662727679343,0.010337600585160589,0.0005087735985577768,0.0076424399335384
46,0.1181781039497463,0.07931632714215367,-0.2612422837372389,0.18694458457320942,0.09750900822483864,0.05597354523765966,0.02247411590301978,0.06699962681463884,-0.12962119753280665,-0.1058422141940003,-0.002167479540734549,-0.0607653868477863,-0.06815935635976611,0.055503338610473026,-0.0644647681657078,-0.2707206638739282,-0.08268257279279538,0.11315215251569934,0.0364778272593067,0.07282359075256405,-0.02988143522326229,0.12424497068754017,0.08444896854012693,-0.053099295883758,-0.0016175738207366702,0.08292829073166816,-0.3148065268010847,-0.028832937001022546,0.37048793233836463,-0.02296722255542613,0.20686561231894585,0.21396600610357797,0.2953260183733654,-0.19070562174897673,0.06939359798729286,0.1219061020106472,-0.049317907512447745,0.02242064693176104,-0.08167118646495958,0.014329964169950138,0.1558484749552111,0.12471927491028907,-0.17447103215619575,0.18406158532435715,-0.07250086627471357,0.0907728952440563,0.023334548942827466,-0.1397485942434959,-0.05079699679553399,-0.06138499992327545,-0.16678988101361839,0.057981124291456715,0.011580682175177739,-0.14183686269233758,0.002102598605110015,-0.06707884150522543,0.027630635242012203,0.04536946972554083,0.0034477855322010975,-0.0020479826102302034,0.009915256759019275,0.0071371975229019835,0.004569602720200863,-0.014409378120792793
47,0.12143552207925087,0.04769856594800834,-0.22310396309810104,0.22870323496796363,0.06542027085537927,0.016296316617951605,-0.031361915682522924,-0.02317570683897927,0.01431142471079853,0.010697071658505454,0.2925433525500067,0.09335491235754861,-0.02482087126092152,-0.14417627820961595,0.026310301195665745,-0.1486705850892029,0.07981448393446809,-0.2018547810031849,-0.02344579575676363,-0.22085713045794758,-0.21934463096409637,0.06771104508274645,0.006201552471921862,0.08314270222235572,-0.07920612215879004,-0.03179049635589064,0.06824698977287051,0.3194450516566708,-0.0444223444186627,0.0036608554620220987,0.06167140052087977,0.16420028325827207,0.04311213454469295,-0.07987984775032586,-0.09408164229224511,-0.03409521798160331,-0.17379512029451055,-0.07718568071303461,0.009577484931235516,0.023479473233979198,-0.17465466139457114,-0.11782782439015363,-0.19469827322681585,-0.4517598772167032,0.04190460928984678,-0.12186609889620618,-0.17392617299296445,0.14191263661652798,0.0748890246734156,0.08371593985823537,-0.015361446388768178,-0.08530103183922358,0.006169441951627691,-0.039351372543177526,-0.030608569138817657,0.0021542352755738493,0.02703574884556087,0.01029307496491498,-0.0007442457311125084,0.02968594823409504,0.018790321979376856,-0.003631409007785552,0.0022685187181423205,0.0016316805749713031
48,0.1114515174284045,0.11988022520179953,0.27569101394303946,0.26585788021586443,0.04925034545517431,0.04904555727392372,-0.08916000268151276,0.013324045605755513,-0.0757901321850453,0.005227794729088629,-0.18091688720279359,0.0902195674428256,-0.024405495395848752,-0.02956341750709775,0.015602861079109062,0.08374982648441898,0.10965909104430688,0.027371246715883972,-0.08600479154783403,-0.021566607806685453,-0.049128184884868156,0.10921339473364065,0.002529947792922791,0.17819011885641833,0.1097740652939008,0.001957740178317041,0.026569065566251743,0.012656980501011154,0.20456753331379515,-0.1723717929892169,0.10698978732303357,-0.06831359504607507,-0.21915614315492613,0.0033453188246704846,0.1524146533336157,-0.12544500141569212,-0.06360771386819622,-0.0496904292327649,0.11319649386283881,0.08355514574084433,0.06756146679087394,0.08819927297681676,0.07839005418453351,0.012776939005712001,-0.0663498536404206,0.11801369375958162,0.020407704728924447,0.12269124995052222,-0.1435167687649853,0.2945378152108066,-0.3253646348666629,-0.3644690204207735,0.22229787138420457,0.1268371108639907,-0.09450521322269302,-0.015124058573073383,-0.002180435221918353,-0.035674337032273754,0.026781843361808118,0.036104461604328564,0.016848070766203434,-0.026340442562172495,-0.009133139682124439,-0.004888010143881072
49,0.11782071959268338,0.16401248031399324,0.23228574971753535,0.1307348378228502,0.003885437389941406,0.04012664478253389,-0.04815867813431066,0.020005235349213425,-0.06932294828200053,-0.03797405583641577,0.05350689646063966,0.10957160818170845,-0.15790687454152005,0.049103480259452936,0.023288224575067757,0.1685299740662597,-0.05147493485416947,-0.07145848968949263,-0.019961765517049403,0.09803398547798195,-0.12009918064944859,0.18656185065648695,0.16430236625580488,-0.09895574398466926,0.08144240418349188,0.0006683085060343041,-0.021604470983644927,0.04143793287161786,-0.04161569425542985,-0.4504192995976724,0.2550956060579408,-0.0878992496352746,-0.13651867820953828,0.16187764492548581,-0.03302625128204903,0.03156423216097372,0.10752461859496812,-0.09819378991784433,-0.02670217591672358,-0.01297808623284577,0.05688029080947192,0.10654128187730098,-0.06670981654806754,-0.16626125329110325,-0.021220442923172114,0.16123975374322766,0.03647009159447471,0.07784172696982024,0.018553552586745986,-0.2723458116313426,0.22167916263337736,0.27616203448748233,-0.1617260388523129,-0.1544767289925471,0.11579169225477584,-0.011384319239157843,-0.004188701770370819,0.02086730314753745,0.006704747549905583,-0.02938228626535494,-0.01387176204237947,0.040564453760906366,-0.010504007208545002,0.009478514409848005
50,0.11554548700634344,0.20288078385460426,0.13656675263764648,-0.11322221877963233,-0.03527046049318262,0.017473385247446058,0.04992315684522022,0.026272714212008674,-0.12428662949999239,-0.07014773731026071,0.3141886229746158,0.1038673935706738,-0.3109902719129109,0.040041596601279074,0.0032303167738873717,0.15058654012944386,-0.12130296191963544,-0.1739647125722747,0.05040042884265842,0.321344540563085,0.11575823604424655,-0.012220744358323023,0.16961361182251294,-0.1667920820191405,0.14658330381329826,0.06529004042168465,-0.03627597360846481,0.20327259581159782,-0.052667927321729535,0.049628977417453216,-0.1609685602510524,0.007267074348814323,0.004556550947662594,-0.02142032506487518,0.030787689595350564,0.10116736697123016,0.04251658401668016,0.17875878156394087,0.07112797478408542,-0.09484029677441674,0.20987321903784645,-0.17599997578091092,-0.10943404466084611,0.04186284507388241,0.05399732645719768,-0.24028869575862108,-0.05528005253554999,-0.17472014551510406,0.07786069797450337,0.1658650744305032,-0.1492763867061552,-0.05504275466070795,0.06937579198871544,0.12429642080004079,-0.10904847298601794,0.03882189080975461,-0.005873895982686991,-0.04001526868719277,-0.027047443818494242,0.013423886848478006,0.005422331119005683,-0.012703739842147732,0.003841101073702377,-0.011792011175034312
51,0.12061990242216698,0.18699206283672726,0.03460638769169556,-0.20678758652233425,-0.08721215412853402,0.007094140285886036,0.08475512510627746,0.03556945485609252,-0.05899364830360417,0.08406765910636568,0.19822126856486894,0.028960539159646487,-0.24141157742702085,0.10161103100014486,0.055688845397725104,0.012533499547422333,0.05436314600478286,-0.25676620806294975,-0.17983255534639078,0.14319221445845354,0.15224355504279874,-0.09307925870700973,-0.00781648857350109,0.16922761152768687,0.09087056465936572,0.021986865793618054,0.13927098355519518,-0.09325077168950431,0.23775229566347506,0.23467781716493114,0.006701248194673184,0.25228968822395115,0.0860680821252899,-0.12582121026611826,0.014141504010648537,-0.09784390772474319,-0.07215021723432166,-0.15426634322342941,0.03470779475570576,0.07910122506294667,-0.16669152840760365,0.11888994807509534,0.29294473965742224,0.04095456090273605,-0.02865383881345282,0.17211310555470666,0.025056773898182644,0.23686078261949148,-0.08685378717759848,-0.07429632093302127,0.17658694006205378,-0.06933701989021468,-0.03714930869190447,-0.11675347689875892,0.11216310438477232,-0.06881477919840669,0.03569494539355422,0.06429223394023653,0.020938573911532143,-0.0053707189304134095,0.00019276516809574318,0.0004575327789495473,0.00014688832012224595,0.01264549929064851
52,0.12731745558674146,0.14780538126952208,-0.058507887631063356,-0.13097872613862446,-0.12550367196811818,0.07019042880864602,0.10025342731050138,0.06473009905376508,0.06167390058210075,0.12091457800159451,-0.11890092754330926,-0.06456470134849003,-0.14448261763642872,0.17332701933472353,0.01716671906328816,-0.1429504422157624,0.15993358123494658,0.018227305430662095,-0.14337161001042645,-0.07385134203771694,-0.009944725052348119,-0.0806005346839434,0.012579985431671744,0.17281230187448796,0.22304859009970848,0.02687114957327974,0.30090713734605434,-0.0547894061319357,-0.1958032845633739,0.02792637866788409,0.0847268204833162,0.02671886061266976,0.032835116755877365,0.09472196878314831,-0.15338957118682822,-0.019425529548690618,-0.05132744457410776,0.037899720269680436,-0.048079817382791684,0.023782202427530992,-0.08500972077260281,0.17918595096221576,-0.3519931109190222,-0.04264712748031793,-0.18177602791986383,0.14794599249225682,0.045894328129070405,-0.28809357758228477,0.027448640375886055,-0.08028051963055224,-0.21190004450056332,0.12719839655770301,0.06432901702105634,0.12506537433251777,-0.09586947632150741,0.16046604420357036,-0.17972110761204146,-0.12592950286444565,0.006879649712127317,-0.03317066592773884,0.008599736103640787,0.0017620387008741578,0.0016742563144928543,0.011157662854404268
53,0.1290863402340831,0.10163200296627807,-0.14825909671411702,0.03172710800371438,-0.10349833817307127,0.08965691742870584,0.07084256515294446,0.030277678145849182,0.13756399483658396,0.08268533665320728,-0.18628570675760162,-0.012573376413360675,-0.18696938049284498,0.14072808169577702,0.027360032092604965,-0.16053950972065872,0.12727414748329713,0.025119458723024315,-0.07678611480200727,0.15328346663142997,-0.12123183891570695,0.14911211011695988,0.017388015210952623,-0.18768743530423038,-0.08624222362108788,-0.03349011136539423,0.035675969925970184,-0.2065812463601851,-0.20679322805790917,0.12164598757439764,-0.16021379443366401,-0.16998749883470438,-0.14356073674121778,0.08418027342959629,0.0037652779929328584,-0.0723791703952259,0.07939293850121541,-0.041806767829983826,-0.011776481122081087,0.026370011528328893,0.08510471381380602,0.1452852403229425,-0.08027141751044174,-0.0318206283069941,0.04173034495272517,-0.1557474275266695,-0.1800780027026734,0.04532718270237018,0.013698761511873478,0.09919187456020946,-0.040379648595021383,-0.1132578252451458,0.02486180586555517,-0.33390818934022953,-0.005619018210249543,-0.25588364310971184,0.3024009692777803,0.24889650798496937,0.018487186711296025,0.05575569149010066,0.011645732401511823,-0.04502168398675197,-0.012849213763646849,-0.02670675619043232
54,0.12717436753811315,0.0642835656348498,-0.20632673064269927,0.152867788843168,-0.04763478392559275,0.09317109647314518,0.03829906391351487,-0.00043533177875361705,0.13191909152701103,-0.03612007959819053,-0.028765509001838226,0.08855110122440729,-0.12154924291841822,-0.06894106393449112,-0.008578842324110835,-0.21569207043318345,-0.03141669655599608,-0.03543823342935018,0.02537559547480334,0.1415333464971174,-0.07688578601057014,0.20358954396526874,-0.007477285645443074,-0.10459129143271823,-0.16694270477378464,-0.016940216242202606,-0.1069007590973301,-0.18379772260809094,0.07402135336355346,0.1894135445440835,-0.057416390070314724,0.008523809370262474,-0.2186295763204613,0.057847599429373786,0.06820756916215068,-0.10799795196605466,0.10293372709704235,-0.033853787363042634,0.08689086322167631,0.047198569384975755,0.11400259974543785,0.11572609880448324,0.11081909113193157,-0.03663506922759513,0.02147763993244385,-0.035904665458377394,-0.06109565809115666,0.10357941429921384,0.0002244273834084709,-0.07943600743804981,0.23296902336258396,0.07289303147344198,0.009114511682590254,0.4731930805732097,-0.05941291659128946,0.27419385441977334,-0.2316945950511711,-0.19264011943626347,0.0004901719162605511,-0.04298043411092985,-0.023591750698892137,0.001904916148306235,0.0017411065363156474,0.03820587120022351
55,0.12698105399718343,0.022673990122551484,-0.17800665358510137,0.16975724768616895,-0.059470432170079864,0.04684698232589334,-0.02928119919760746,-0.0410140292024395,0.19140782261297248,-0.0033663660744178694,0.1438976313502704,0.21230173080972692,-0.04226742210474955,-0.2762479809610872,0.01864825550323786,-0.03869461965768367,-0.13789932684665737,-0.2369485008430347,0.05718303391473321,-0.08003351576504805,-0.0699931935437244,0.10553777680185165,-0.1208517428303367,0.345807613425623,-0.05820882422647225,-0.05232355509853448,0.08904156670834096,0.0837555520829846,-0.28956559089830075,-0.04395744583569282,-0.03974800057490278,0.022419003451257177,-0.026925385007818586,0.07648039023035799,0.048426426996925565,0.04001888160771136,0.10219051422648234,0.09122874082887994,0.06572303428967287,-0.08607567550065616,0.10308143993094543,0.018321804226640703,0.1445547292692063,0.43833173455622804,-0.01791646316991615,0.10577755023679816,0.22146556271865528,-0.1445970197192476,-0.05563904556881151,-0.03217107880159234,-0.07847482349240194,0.015173678869698254,-0.029678226626681486,-0.12984026317110708,0.08798850873772396,-0.053346560912390095,0.04000181914580506,0.02994227175978328,-0.007450994295602073,-0.0033642496860042392,-0.012418462543983376,0.008225930561195943,-0.005452179198936563,-0.009372276494305165
56,0.10786906938754953,0.10613486750983554,0.2774858707574419,0.27388331174849523,0.010355637762522778,0.05800794926804009,-0.08056440079094439,0.05342518728369287,-0.14517037014610418,0.13161197372548508,-0.24835790570422467,0.11627055634773666,0.048972920699548866,-0.14488127148079138,0.023856973259518348,-0.07117121506590839,0.2837860886883868,0.01880326453716743,-0.1331053116257646,0.1092190931901693,0.09073523106488036,-0.08901829339186935,-0.14160733727212127,0.17133409745932596,-0.07740398276378657,-0.0036589827077511405,0.008199726559093519,0.12221460366630767,0.146873080250645,0.20672600255231596,-0.2637862766340647,-0.027946093079485035,-0.015768723687266915,-0.16761864083330993,0.17568740117853904,-0.013902197513405337,0.11172206274146507,0.02222266242899716,-0.007610757457569872,-0.014785684150753682,-0.01231117555543896,-0.2384656623920886,-0.254814996045584,0.036702280227448404,0.06205044563053935,-0.05165111189628274,0.02915035996716875,-0.09152419000760154,0.10736136021029466,-0.13451340904096584,0.1381678468012395,0.20857171370319322,-0.14624580426046546,-0.08256467023846899,0.06111022663673603,-0.010847540399250608,-0.02018435096510192,0.008730031188585063,-0.025004706648748244,-0.021564005505874173,-0.008295456216250843,0.013838272608622096,0.008558775622964157,-7.507162970318837e-05
57,0.1094123818333802,0.14669530527190242,0.2658436842321179,0.19324910515635482,-0.04367865796858152,0.14209430539974363,-0.03098677907467297,0.08940049894936239,-0.21009842323303754,0.04569930044529687,-0.1258279481622089,0.09517773847413506,0.12241581306408597,-0.18686173693749655,-0.028563342262653047,-0.1561651471695661,0.012300633678885686,0.09154715848911743,0.08413868330641673,0.023592451783851533,0.11717913867638151,-0.1655083467339984,-0.016609692284111882,-0.15603356736234278,-0.029494945223167576,-0.0888688721109829,-0.030214113821555876,0.05872620269820497,-0.2896203969511112,0.11373132340283455,0.05983925144891477,0.23662408589435194,0.2406403461721783,0.14537638521713667,-0.3330032297104547,0.20145278460175536,0.04552668792711879,0.024482017936615065,-0.0972283980038583,-0.07471204279799668,0.046396576112675246,0.24073135175968763,0.28946744673203006,-0.06339612277739323,-0.03319918715476283,-0.05620464430957664,-0.09983238640891623,0.050455250746286526,-0.06695560982042911,-0.013219926247792363,0.0011748395646264745,-0.07345181500174365,0.048124857213380084,0.037009320462055975,-0.03919096919857243,0.02288060403811018,0.023984559525915897,0.0019209661043061432,0.013031359611066162,0.004196745001013816,-0.002994275976891468,-0.014652049811564455,-0.004735970855464927,0.007647710402525279
58,0.11827516189042545,0.17033352128043677,0.16509373998370983,-0.01562168731380148,-0.13847364825944203,0.12567420399746293,0.07092719502465204,0.09473566850466518,-0.14998960977085962,0.18928472616127257,0.1785246421421209,-0.009807702418003373,0.18510221478336544,-0.09715329697085817,-0.0234832867231664,-0.131254420260816,-0.1913304656471074,-0.0439621134202804,0.16627010895635566,0.011663801731482707,-0.01640751857172268,0.02835510319452103,0.06703558220328687,-0.25620792682803634,-0.17113988089297336,-0.05921602241238662,-0.01555696125462662,-0.23893684729186004,-0.23249837413931318,-0.004053556349968013,0.10755576675205705,-0.18741991774395353,0.10661772965939188,-0.16070379063612472,0.24938924564292286,-0.20482417775146972,-0.20342956508502047,0.01060842143550714,-0.02105233678911489,0.12984103609273584,-0.28388072063101893,-0.17638980570043078,-0.13122155788975481,0.0808564039744433,-0.05453816052828564,0.17973085647434894,0.14043364442877798,-0.006001060393953421,-0.0026065630508445223,0.03891912797046037,-0.002879025990077111,-0.04498254747640591,0.03148863214586972,0.05939040540405316,0.003282723733852383,-0.01863664058148773,0.004776801997659369,0.016462319425769638,0.007954680309203654,0.009730613590907863,0.014999546719043605,-0.015000729210381786,0.018250567504959514,-0.0050835560266166285
59,0.11258655332688951,0.1730937344016555,0.09273100440664916,-0.11972529384020866,-0.2112795785666425,0.18932570808705404,0.20938707881956087,0.07356076436571589,-0.14104300704026979,0.023049048257407723,0.23791081391524121,-0.1925363455834708,0.3571751855455355,-0.042088702330402204,-0.06066003119126754,-0.12459984984858798,-0.225524165576065,0.02939526600504539,0.09034595744029031,-0.18932314863180094,-0.010849679091237747,0.01352675398165449,-0.0768296446132662,0.18547849065707053,0.03299137091333295,0.08337373234947408,0.026470413981774285,-0.07662200469448587,0.2734712702528408,0.01309404150104157,-0.12279472766208509,-0.0822730894737091,-0.261378976286738,0.1292164480765795,-0.1127676165697533,0.023268484684791126,0.14053286777532353,-0.10503557921902759,0.04894540729280791,-0.030072267977038714,0.16782135657832492,0.0772297356532351,-0.034339726409693475,-0.05639630394763369,0.06955426388343924,-0.17410610807666407,-0.08053712203122076,0.0062538279898826515,0.03149525998828254,-0.0023030015543757387,-0.10140675134744291,0.014359692679780614,-0.06575462726262896,-0.20615281512149658,0.04848005542221501,0.0009181325786968564,-0.13097179298300002,-0.050899089268124344,-0.011346887309475362,-0.015750641210427845,-0.013621404914160862,0.0242863568042124,-0.014298734371840913,0.0032899148438614023
60,0.12224337307640241,0.13265886531013757,-0.0013800853485753863,-0.09194592078842781,-0.27271696254037464,0.19401845749380428,0.18257848773179347,0.0044575661196694346,0.1021098583893219,0.002452609274191165,0.0362497883328084,-0.18716714117675742,0.19156956009660267,0.13465296827702652,0.06410143616237765,0.11078996297233244,0.16875787433847958,0.06160078621039276,-0.11683094059877361,-0.08116940573010425,-0.12411456907920222,0.07665640670764272,-0.05766814415017804,0.1470135926940395,-0.015339336490592131,-0.0056502063292844795,-0.15575367479856636,0.20563201070614145,0.004974428665503288,-0.14203849989905176,0.010722974399453189,0.03606152695047353,0.11275347528598781,-0.05286358105772157,0.08981517518015675,0.10408419053958555,0.044979835020301756,0.1121890762885385,-0.02055088400113128,-0.0102869041135588,0.04612403942163308,-0.04844623894312777,0.09233748090985883,0.02067726920086474,0.003971110405203149,0.05108633199943069,-0.03136898487665462,-0.02533678228645384,-0.010707564450172014,-0.01563534962970542,0.18374426606913677,0.10135114880776648,0.1006737638045644,0.3922727836856874,-0.09766130417667458,-0.052053863202601,0.4463532080387197,0.13067149318277974,-0.022129103561256795,0.05089237524649712,0.01888835024026156,-0.022123978044678416,-0.008179116195174894,-0.017392301148061208
61,0.1259406712893604,0.09130929193821022,-0.07413208586972447,-0.029026481750078357,-0.26625488331696695,0.1800311768543164,0.11588967457509454,-0.022037973886965736,0.22940269149342224,-0.006831226581906371,-0.12091528947014903,-0.08553215493794485,0.05286503281445282,0.11890301224517157,0.051820295447966916,0.2145539100162696,0.224844803221446,0.10556207464746777,-0.04417050919133691,0.06199988008515034,-0.10823295500197891,0.027907303327079316,0.003221266103839132,-0.1401497230276549,-0.08200271393330691,-0.10292404139547606,-0.12603229257485993,0.2120180371399909,-0.0692882995457774,-0.058460564325283945,0.04029358516263844,0.036406959055087285,0.11028029540015484,-0.10266356479146162,0.07414101814535301,0.03729294997026924,-0.14852493924137194,0.06985658815543366,0.0032173426016927353,-0.06656226934178697,0.02031315332559261,-0.09544740591709902,0.14004306004892825,0.06376671874357248,0.05339947531828532,-0.05647385618048842,0.05079678837087632,0.10307836093247048,-0.003744957278267305,0.0461312566687588,-0.03784964060128898,-0.1594807206453659,-0.11416175389911584,-0.2906778721388019,0.09797193813132239,0.10980133655048517,-0.48302244002772887,-0.1474510040079691,0.028801838949470415,-0.05200277265163288,-0.03752711580269226,0.02709803795814371,0.02535617682088826,0.006733916587891695
62,0.12384891945152177,0.04288187269492512,-0.1330486531165189,0.06426673395108644,-0.19054153326958292,0.19976718534238067,0.0478180853749678,-0.04868934356598541,0.23882068179284133,-0.29235418496886567,-0.16016540999757803,0.10738688857441168,0.02845656530141909,-0.1968681842667643,-0.05280230525496939,0.21953310364450823,-0.0412400494585827,0.041193356284684936,0.13723326993760587,0.014673822371959272,0.20967757927852082,-0.2178949492159056,0.07450211520067772,-0.23054548700071453,0.009357836483716422,-0.060392775892002,0.057115282943892565,-0.004558593373311826,0.20314746110308574,0.13390547809357853,0.12069084404008201,0.17963295789862813,-0.24056323962427092,0.08841901249954019,-0.16436115321079442,-0.05361406362806995,-0.04098943525298718,-0.15085567286390864,0.0893180481083351,-0.002692077629649986,-0.14156521857904006,-0.16356260661929017,-0.09672984295960403,-0.07112642505194518,-0.006463803066412387,0.10335291927567006,0.19203214718654069,-0.09376860228433993,0.020833588071663425,0.026356404448173894,-0.11975801571048218,0.10019073699167635,-0.00576645727960684,0.017271800415514973,0.030911372585764138,-0.09232920443803741,0.20052070341147,0.027593883735571867,-0.03260087459716516,0.020350744650399738,0.013222571004390726,0.010730262930159665,-0.024036301228443274,-5.17815358490048e-05
63,0.13063513927685072,-0.00085951704965015,-0.11346477469836862,0.06642688943143828,-0.18277575112114125,0.07610935204189558,-0.08497560064671963,-0.07119203952288404,0.24991913937704252,0.013746490829832928,-0.03601402882975942,0.2010788159626396,-0.013091007569234646,-0.17807822960316455,-0.02877270663939885,0.14969984979714143,-0.10257504705310826,0.0030817507502820707,0.15061861040128413,0.007637171207656522,0.2662455873879514,-0.10283053845676435,-0.028797553636320555,0.11999528739664377,0.10828800543616235,0.11586117223265274,0.14925959576140413,-0.21496201597269515,0.15820579783729777,-0.2501341517511897,-0.10404102389626446,-0.2486817564793738,0.36604378420968353,-0.10872225312102013,0.07792024133355145,0.03568946689028598,0.06196308890314916,0.129967413134819,-0.20550794607912715,0.08328434652780871,0.007426090829391871,0.09667819917313361,-0.06916187538210725,-0.13246336274640821,-0.04046981578960593,-0.09803484726343262,-0.2600113886578372,0.11200577272557981,0.0001327741933924917,-0.05405400928427588,0.07464042311818585,-0.08466525521051263,0.037825127825075855,0.0027327901559667522,-0.06370262067018603,0.03718291260169371,-0.03632194559706846,0.014967433950809142,0.007016106016399903,0.015499986272870657,0.009780718232714827,-0.004832708412309816,0.010070985830681042,-0.0037867432412399538
