,0,1,2,3,4,5,6,7,8,9,10,11,12,13,14,15,16,17,18,19,20,21,22,23,24,25,26,27,28,29,30,31,32,33,34,35,36,37,38,39,40,41,42,43,44,45,46,47,48,49,50,51,52,53,54,55,56,57,58,59,60,61,62,63
0,0.13181067886926928,0.08352807047192691,0.09819519672926509,-0.08775882127844514,-0.022834718083717374,0.17959106120965226,-0.049906406717640316,-0.08528614915761187,-0.10963267919634748,-0.236673458699207,0.010982797908408793,-0.009326973659075425,0.08550919494620889,0.2521818741366246,0.005241802639561449,-0.26818241385708447,-0.15661943413867116,0.19859550100647783,-0.02380167874840509,-0.018939308677356725,0.007948477024222014,0.04251322914067312,0.03021795543379257,0.07926289069924512,0.03148400248094495,-0.026516193744948194,0.146163601821885,0.16865463298248984,-0.017007613151892594,0.04078739566276724,-0.17260630298752527,0.0803882947590957,0.20376855109706002,0.13519565706946307,-0.13153272883966552,0.07352742925346209,0.06079273212987261,-0.11250026656157766,-0.08292225760789552,-0.25208589571712,0.301988717725139,0.18631507721392612,-0.0947484490590494,0.11647538302472975,0.15288881700774087,0.16374510400082287,-0.21008173184705126,0.1572570876013101,-0.1237167268570204,0.02081985084853447,-0.06398217736260968,-0.11431045053414837,0.04492611163362688,0.037704473900116615,0.008805960476392963,-0.04751331810482241,0.008270588933080438,-0.007064123024482461,-0.04574445442587125,-0.09982434864702457,0.21762949205259227,-0.03862777185648982,-0.03414884643756943,0.05776549174159458
1,0.1359762731298848,0.09559946352150375,0.06240503158402512,-0.07897777791244079,-0.00463238459877516,0.15677941080241914,-0.06556308932857462,-0.11244076533597926,-0.1352642314374384,-0.14509950296827628,0.044984866599631745,-0.04271983195200713,0.10020137015515122,0.15688044713664576,-0.007764503147795185,-0.21120744611388156,-0.017785828753725346,0.05691618053347751,-0.0787251208828049,-0.07440818536173123,0.08520939067548863,-0.1331549925090196,0.008922135221668149,-0.056836871998060534,-0.00661025498127341,0.025914087206160154,-0.1912679027356335,-0.04868482025605343,0.03750053161780043,0.08527903889912485,0.014737787875946342,-0.05337860322310486,0.04083874212536506,0.14782775881736696,-0.06953987534971219,0.011139320692716292,0.0715911366000396,-0.09694422001799319,0.060965347547277164,-0.05495223106829604,-0.07014525257888661,-0.027859501789417686,-0.037172482756902755,-0.01641725334145645,-0.04997041391315446,0.004689637214112981,0.07893029489747,-0.042650039524733015,0.02630166606255819,-0.0025565334910231463,0.010298289136971145,0.02622528313214645,-0.035222941345117616,-0.0362960429673325,-0.0005240656299784858,0.04706557333880145,-0.011610856976620645,-0.005095323534066519,0.0845193693081157,0.14666750302959622,-0.7339496102022416,0.091634407939444,0.09353622338665224,-0.2112017535154548
2,0.1367667820820257,0.10133905636475371,0.03287849797405096,-0.0517440576736625,0.0017737613414901404,0.10588939323756086,-0.04956163497018889,-0.14789891430685081,-0.18003898009381428,-0.041131548813230195,0.0473535801443004,-0.058335291353821504,0.09052896975621272,0.12959669494481768,-0.02394823729568203,-0.12837978863099536,0.09942396392639034,0.04834696381421599,-0.09024142562748501,-0.10297442925639073,0.14062526119086624,-0.16691223284438367,-0.013386643680613115,-0.09546030153272615,0.0002818808753478775,0.030472056313058903,-0.26810254775732223,-0.06891531159582881,0.026290244429881853,0.03175052199442489,0.06145740163167603,-0.15018928515280028,-0.023025021273641047,0.1434469489674041,-0.10308186507866653,0.004357942186842587,0.061617879438317716,-0.08595525559441355,0.18081970115116383,-0.08107350862219041,-0.27104541653413694,-0.07618020677102698,0.024638251005412053,0.05033254605188755,-0.06733771622939802,-0.18277109048297802,0.24340120379607516,-0.1500682284473442,0.16161192598016155,0.052395311344008794,0.0821267531829654,0.228006398058162,-0.06445007646034413,0.03732925504487129,-0.028595894573387428,-0.01345359300053815,0.0007766233963130268,0.011518054490581263,-0.02480162345302272,-0.14565175580731302,0.4265807574621633,-0.010266351675132259,-0.12115263162793302,0.24343101406428386
3,0.1317042273259548,0.12242635457873452,-0.016420624993032373,-0.009930608894629378,0.07393539486973418,0.04575766813456389,0.1521705011062612,-0.14862016576426496,-0.17718801100909548,0.10494474795547193,0.013743296431092747,0.008047817918289853,-0.027728484835310548,0.061473720552465784,-0.019636637009119676,0.3014195145335658,0.2357967881477919,0.2466461690786367,-0.03802094674829272,-0.062309824511509904,0.10036469663212716,-0.11104069293844807,-0.03572817636136133,-0.15475290932229818,-0.010475563328910753,-0.08181638271800358,0.15702912011254166,0.038857212890611705,0.03236119151873552,-0.02984062150014634,0.07004088437729046,-0.08798560152927182,-0.12462646409942349,0.009944203024389413,0.06474766021165487,-0.017131639539359103,-0.028280523182657537,0.021106473918159396,0.08040855118774445,-0.03765710025283378,-0.08771857113633694,-0.07635728035490653,0.022630823603327212,0.19466599273070784,0.28568604807000897,-0.05829922712114265,0.033078501824135936,0.05207101870127828,-0.0015694404195109243,-0.2049277537373764,-0.2299634782987774,-0.27867611689262023,0.09121609538621275,-0.01717340370624567,0.07191892485281434,0.03154054588069943,0.004046425217844101,-0.0002380180641041417,-0.05443115262564233,-0.06996223281970779,0.016408885615809013,-0.19884336483344323,0.38070397244021215,-0.0956926728359661
4,0.13338593679067828,0.1257160452711963,-0.03264459642183193,0.011719614538624953,0.04713330945404447,0.014493073950283819,0.09552078005778891,-0.15310775952674135,-0.20158211339993626,0.12100081388899436,0.00790276652765981,0.007245910741891126,-0.04621599988058456,0.05002272844776967,-0.02574933913933743,0.29991988854640755,0.15237928461570688,0.1635943582441316,0.010003744642538849,-0.010036796923984785,0.04225938698597943,0.014504724549502686,-0.005686016528839311,0.01675347559612987,-0.008414675787742677,0.07466265946781506,0.038462397573045405,0.1621067304011434,-0.10060079642768488,0.07811243334123077,0.06005386517409425,-0.09351102326066066,-0.1788684319991334,-0.1184477394781406,-0.08998480103978143,0.049486796836766773,-0.00854675849356879,0.056646105774115926,0.00506605606600978,0.03823705846066815,0.16445983783989226,0.04763012872911125,-0.023192858908566052,-0.046738323691960085,0.06909336234938146,0.1500378947942116,0.05293532653892787,0.028924448635735373,-0.04600660118601183,0.009039089688634675,-0.010107549134384934,-0.04403464139103706,-0.05860378730036498,-0.06469091107727663,0.014257104265230615,0.024615134959843757,-0.016890482126965083,0.028069194768014165,0.0676146915513521,0.08197166114802633,-0.07581680585265184,0.367082488489882,-0.6111643349783435,0.04166455277726462
5,0.13426216637917565,0.12072374287752695,-0.0439324651476824,0.041401799385747506,0.0006102510970192598,-0.04381872251750896,-0.020530055261490855,-0.1714504038052192,-0.23486347441259153,0.10986027075208171,-0.009540330619986862,0.0018136734361778595,-0.059315944447769234,-0.0017077461992310305,-0.011585222173736271,0.14369772765506966,0.05046177707699612,0.02601501518288804,0.011314704345170404,0.023469536683842877,-0.05970761298214594,0.02502931181331026,-0.0574442432629338,0.026225589856035587,-0.06963158188235655,0.2611772788058028,-0.07232303067298917,0.2641518700022944,-0.18988161405940956,0.0169186793999627,-0.016605081932096397,-0.06568482264486998,-0.062183109117955195,-0.13831973420022234,-0.03629657971208436,0.04274852611467783,-0.015758963207148223,-0.018395729495090232,-0.17141304543862548,0.07078261371159895,0.1840855650688994,0.22129162929832985,-0.16165906717080644,-0.17611089675834912,-0.25811288603608695,0.07496112241501345,-0.047683602395391086,-0.05102778063135957,0.1370843362719648,0.18990214581296644,0.12031786992214137,0.2695269301831857,-0.014208177755912287,0.08024297080496413,-0.12134156558594641,-0.08375953079873077,0.0609383560199324,-0.04393088643812572,-0.03206365915911491,-0.03928959616453438,-0.011884302772852129,-0.22657956361616094,0.3613069617564136,-0.021570983232387975
6,0.1303005651904495,0.1119446295023134,-0.06392869585691192,0.09257631027800994,-0.04222531609378518,-0.15569700354452282,-0.060338983595418394,-0.1608044155296713,-0.23767255068204532,-0.0033975392919950997,-0.0031749125146504848,0.03662539284786819,-0.10853918872095632,-0.25176213467253317,0.06412740022948628,-0.09416538343346312,-0.15215588114853712,0.01777704869295521,0.04982002438067101,0.01133520347397934,0.013614704550157099,0.052118254914901276,0.003284369292780788,-0.017792546224189597,-0.11978609147716246,0.2888332080379829,-0.008110630757203363,0.061846778908552974,-0.07113504941989973,-0.02717751343391238,-0.05058794121634834,0.1586206716413187,0.2646009239722687,-0.26869746302859593,0.21339038178622294,-0.20154740332843715,0.1464392638012544,-0.21971772092103578,0.03574224394725654,-0.2019218828545683,-0.13877484685741676,-0.048132954768709435,0.05234463943493614,-0.01748834115559713,-0.09943960272111102,-0.26572152071989374,-0.05109238994065189,-0.06788029822300233,-0.1586485117311491,-0.16941691185760804,0.015105395061057528,-0.18484981431697392,0.005407796937208255,-0.03190187456729994,0.14952092952417162,0.122309047860655,-0.061875720500048706,0.014859573435846462,-0.016579805856639925,0.018505876806921978,0.017546074219560615,0.05729312597501821,-0.06665048102778115,-0.004283556716241206
7,0.12934076674750092,0.10086840867323757,-0.06708807823579997,0.08995903854117832,-0.06360174531182557,-0.15749225180789628,-0.026576026380392984,-0.1377567608448276,-0.14841315082115503,-0.10345128918001906,0.07295150046976762,-0.016279107524313954,-0.0672839691903471,-0.4368670622693769,0.0729556707314699,-0.16349424640359436,0.08312259901865213,0.15982786620283715,0.06911107996807539,6.382052574405161e-05,0.13860521501074502,0.2562368593661525,0.11975928755042345,0.1910830786521635,-0.06589799405655256,0.15635922769605168,0.1461357035409825,-0.31008555552393313,0.15763801325869886,-0.006546296866838851,0.01924397916643289,0.07682749637321162,-0.021313299977308617,0.27481697648111836,-0.2311338400532385,0.08763073940848426,-0.14835162894414733,0.20207003575447594,0.07224774843584152,0.1664182730621243,-0.09336125319059262,0.08097384237529004,-0.15486943295584626,0.038761332430480674,0.07079738552361854,0.08974564089003281,0.019731886720978573,0.03536370690155171,0.012247087665527102,0.0320575162678997,-0.008433500977440774,0.006526192065952313,0.006074860322526788,0.0011964097016158096,-0.0589215969207575,-0.04009745079579494,0.014375841614509697,0.018071081986964267,0.0039011413997615957,0.001997357280420012,-0.0024858151857609367,-0.007488553988790496,0.021792932344732185,-0.0013493881587108292
8,0.13246422149372905,0.09011549880468303,0.09897550733016637,-0.1046914860077544,0.01719110445550308,0.19640754033932387,-0.022506647156315285,-0.0385482926847982,-0.026399782479557654,-0.21669654499384347,0.022790339143453704,0.02619663115425269,-0.0032121262537165574,0.13615518445595554,0.004046426090179321,-0.11743092870870983,-0.12403692536339382,0.21120588523846218,0.0006007142321118875,0.012366767821471902,-0.0688879437467161,0.16088106269947228,0.04255346183918065,0.07524688551921488,0.02243186078973962,-0.12444274117056758,0.4174066628946347,0.14005736506418096,-0.004439668208420223,-0.1735842982018378,-0.03900350964680596,0.09233545551897633,-0.005900656807798582,-0.1854799147241199,0.17207788610304064,0.022864117857607065,-0.18557090093378545,0.2607871109288392,0.014497109706982987,0.20386323463951514,0.012847553369004255,-0.1271308238234926,0.20180898896555166,-0.11401106860164018,-0.09731008136625105,-0.20961253578729455,0.24703886021726137,-0.2050619879415225,0.14301674867328895,-0.008851305807446674,0.053596208290798655,0.11030277973786778,-0.05934420600746679,-0.04572056168903616,0.01916039133538955,0.03439706057963212,-0.030439292677457222,0.008266801609855394,-0.010306348277951412,0.0447144618459592,0.0006831989189306498,0.022554920129605242,0.014248154713715419,-0.0366756322132014
9,0.1360993507352522,0.1025601374157236,0.05947843276171478,-0.09023348180316304,0.03331479320346198,0.18009829796317667,-0.06310626560754384,-0.036098939615563846,-0.0609467329926609,-0.12180646145813123,0.03863781560653841,-0.013221103262023207,0.062339325827323745,0.07160122793134754,0.0006393165880600516,-0.06075775442020703,-0.007083738211356938,-0.013439209373513547,-0.06686821366687055,-0.011693429056035431,0.06688537909525337,-0.036337394160544684,0.04403611940543825,-0.0036092539507738552,-0.016624119991722256,-0.01577622095681826,-0.23062779169416675,-0.1653151914967787,-0.005354018784016973,0.17293709685958916,0.12790788549322704,0.07777700684903555,-0.08178472724486499,-0.15199763395309823,0.07454991713741183,-0.07434484389771757,0.05344613106174896,0.08501143607906142,-0.1557019051100449,0.37440114368427946,-0.107010451611015,-0.14136418115052685,0.035508900827937936,-0.2843377564095191,-0.14286883328346522,0.24408690335245864,-0.1819108896380202,0.12417526147742836,-0.16044355033627994,-0.11738101991115911,-0.042721556175281096,-0.23857966358110488,0.0700135831821795,-0.008080908873853532,0.003738609858133712,-0.07068277614206403,-0.014673053177521083,0.013248814063791768,0.02746651801574915,0.32395705895417015,0.23675569994186374,-0.10971045190936105,0.03373635988030556,0.023683903607345264
10,0.09142731883871903,0.11020802842951717,-0.005928667190661412,0.0008689980242876962,0.2719083541902365,0.10079875689724876,0.6976185534092351,-0.012266277907787504,0.18862835681955037,0.05181625930544287,-0.03608918250605836,-0.06506459821168371,0.016210047695780785,-0.06900072466080134,-0.001841299508453383,-0.19874341163234951,-0.06733484467618425,-0.17793495272693027,-0.02590976951038179,-0.012960270338996351,0.1838451086546559,-0.06179356010171481,-0.030794330026516985,-0.09008214014838936,-0.015921214055948707,0.08635861354584974,-0.04445494994173001,0.10853602913560007,-0.08598079275217937,0.0514167776284145,-0.1029672038036433,0.2020090049108324,0.15226022894703034,-0.14475729541072432,-0.1195677586435818,-0.014995506245573761,0.012002399503670859,0.14699138134451106,0.033184766448321495,0.1269179711262961,-0.06440085777353796,0.08054653587510913,-0.09079015373998255,0.07766696980928499,0.0716168256194809,0.0020475906783445153,0.04329944895492495,-0.015951600012138897,0.03732328820244689,0.04384311568197668,-0.007729156824039119,-0.0030986604294053824,-0.010436353982709416,-0.007497320463454617,-0.0047947890674837415,-0.013997248566572414,0.016461506194773927,0.008940455086528106,-0.005181608363268281,-0.020971780733425607,-0.05160926357379669,0.004088398972453236,0.01483898290378316,0.12770327621112038
11,0.13463470244270956,0.12678273563644338,-0.007684918956907075,-0.009243596116766761,0.10435124389101125,0.07401173264821026,0.15470820827933834,-0.06650225445199034,-0.05659799271546423,0.15506537844082302,-0.04048781139568684,-0.04130575813533818,0.05787809613534939,0.11109539757449871,-0.05452592910307061,0.018494841232271565,0.13447946652365228,-0.12685439418593705,0.0263586451095418,0.019736505485843735,-0.08608402681850383,0.10122220496401983,0.04317717640329505,0.09309203882679747,0.012129190608573502,-0.009629997266891129,-0.09171367460905175,-0.15686220982558682,0.03712047896727906,-0.078724765047645,-0.044022359348279895,0.008835566495775873,0.11263701629182464,0.06613101297697636,0.07877686216067614,-0.04130614022045059,-0.11262531370453854,0.11324813317338855,0.10155562500310107,-0.12603303041338626,-0.0026378076846976795,-0.1345547147742782,0.1382182823236302,0.026486046054115562,-0.03850152298258442,-0.03757447413140883,-0.20818764149211172,0.10678313514506259,-0.16744671167479452,0.11431629056885996,0.19810915577332872,0.16339313335743869,-0.04027305400091895,6.61492809145136e-05,-0.036455670584678246,0.0025300673516092734,0.013659458976014723,-0.019570682581048597,0.0017983658645985556,-0.0958653970969981,0.1828815803034785,0.05629218779969401,-0.04760352860434509,-0.6588966148064278
12,0.1353736862514742,0.1268137362407686,-0.024202765847672756,0.004715558829544574,0.07236354843382392,0.035060489658771635,0.046747209561542824,-0.06437030198590615,-0.10328636828370985,0.20625855613368493,-0.04830145644618705,-0.016364256772378096,0.026646282427354895,0.13283436890945485,-0.052458901032893995,0.10848291960814298,0.12823287484594886,-0.08684158909103668,0.01953541534966484,0.03908764392010146,-0.09932325958613672,0.11456552856772029,0.06380799340109458,0.10490540130543222,0.03064227859504727,-0.13122137805044737,0.0025622805266551363,-0.13827027872344136,0.06143452207753445,-0.22846940611962718,-0.05417857022273232,0.03212023101895006,0.13433436581866334,0.17642991435399538,0.162098405610016,-0.022126020930798636,-0.12134774127235237,0.062112478082925596,0.02231493297862423,-0.11416417839213562,0.00601461617907631,-0.07934669217430015,0.09811804080652546,-0.025752970606707504,-0.06623775830506341,-0.1345631823555634,-0.26667646520942145,0.09717040180950537,-0.11441467063969457,0.05742336556430992,0.09137296029431613,0.03750803013668745,0.04984606876285272,0.05663528248339738,-0.08621281028064044,-0.05967872220953885,-0.01391297257805535,0.0052555342151472915,0.03750236874898528,0.1396821021271893,-0.2222751435529448,-0.06887134979285703,0.005731868519301776,0.5970243098693346
13,0.13142013758903748,0.1349543224843224,-0.06248733329038874,0.07239814063980979,0.06310616273526182,-0.08729950400188503,0.055320613576668065,-0.037984241559924414,-0.08267629425819309,0.1273221030598152,-0.061150202506274974,0.05879212686969985,-0.067532081240718,0.052651064102879896,0.03295872503212402,0.04514015670605473,-0.24010027537119394,-0.11270948332610559,0.019927366758655606,0.07110709046762814,-0.3454077142505995,-0.04375167934653183,-0.03425292223624237,0.10202010187410912,0.12349795155487739,-0.13138291817045977,-0.1620499449674773,0.13238250142000324,0.005572047511742652,-0.09747897343119015,-0.08572523283610844,-0.059914123410092765,0.08767557179568364,0.41278027833808684,-0.04122962039774694,0.18107749392883496,0.006527254599806643,-0.04025004298300965,-0.296760571406436,0.2844319680224464,-0.11106597379216487,0.0903682915253963,-0.07785109107542132,-0.004402114314677491,-0.0005071069243455378,-0.06213363238674466,0.2107010120286717,-0.13426251526322214,-0.10889194580590894,-0.15153799884096003,-0.03437664251120371,-0.14128030400073843,-0.011678206088926966,-0.042863662086896084,0.17415274346488704,0.11625145601474604,-0.059267871846672024,-0.01223049815329193,-0.025709175359363602,-0.03286949137974382,0.06003872851604225,0.03797182149424444,-0.01422509617586689,-0.06852263473486399
14,0.1302923414341291,0.1176279999613721,-0.0720056406700997,0.1104314705386564,-0.04534833688916699,-0.19020994383335557,-0.08629707224856956,-0.08044783000260047,-0.17335612813452816,-0.06023369313400806,-0.023839093491452426,0.06841305195675765,-0.10704237473191516,-0.07335898326006982,0.06224470405438497,-0.06816345468798227,-0.23640371948650457,-0.16280282022297343,0.008183283377504146,0.012397065330635705,-0.16925250888090987,-0.13777702123075508,-0.09971194033188578,-0.14180921377416955,0.04824549777327196,-0.06448684994242812,0.013003565423629085,0.07894004620844867,-0.0026665620086623164,-0.05348965240901882,-0.04292949198455169,0.017629269439505803,0.07112330126516828,-0.08135520190873567,0.08257345593399054,-0.05694654037976461,0.07606205964798153,0.03231162437310505,0.051622382761253936,0.073006460731891,-0.05218570602590657,-0.3176212790884321,0.2287549911154203,0.147646614754237,0.33693465634577724,0.39459744756966547,0.05388609077589811,0.11752848559692763,0.1250708202633621,0.12961576667302122,-0.06305928148142353,0.1916334124469064,0.020836461286044224,0.019913307467256156,-0.22488823162811233,-0.14313179674679646,0.07099743525568541,-0.013915836190112347,0.06254687858059552,-0.0009294333343373845,-0.03262992046043767,-0.020235771243145774,-0.017238374317336894,0.03099528842072305
15,0.12616352321610777,0.11415483997010545,-0.07466633138435945,0.11606060952372281,0.03401608285030086,-0.17331266530104797,0.23642425277986315,-0.0588771710546552,0.00854891846034192,-0.16960104964488207,0.05855878427170563,0.005484179122836413,-0.05723200975456849,-0.3114772234403489,0.09001377740850651,-0.1884373721472195,0.003928905428013191,0.011744045376950368,0.0439551913074869,-0.0389932708823615,0.12492278129326162,-0.10908263358502754,0.07330289363046934,-0.005202853500123228,0.16546635732871376,-0.44787131927707435,-0.03846502720874767,0.008983212496442579,0.0030122777761290185,0.007043823191113064,0.10284526957337553,-0.2505450914220821,-0.22798979203899558,-0.009429098782182871,0.027038191133991474,0.08125760985028004,0.05876005220773143,-0.11719532640467029,-0.13400290334013937,-0.18091142086616988,0.30029901885138777,-0.05560539780838864,0.18904495160825832,-0.13639671058417896,-0.1887824134357755,-0.11519643440807709,-0.10188558580788862,0.04199030113681396,0.05094272809632225,-0.011361250545366526,-0.009657780247076246,0.020011160829289998,-0.015138811152483396,0.008509969474527632,0.043300030898519616,0.026226039105991344,-0.04552816124377857,-0.014964532427678204,-0.01655329669235948,0.010785941144478721,0.01681421957372853,-0.017505511920157382,0.010856335105561353,-0.019535250449801922
16,0.12622254808133096,0.09907863958055867,0.07153168454038823,-0.10070802809036904,0.1312257084332028,0.20055292465448674,0.1656187252590962,0.07898936541762792,0.18267751203334948,-0.20122592825203106,0.040735895999653327,0.08581089427116467,-0.05071652985831948,-0.12806581990497196,0.04396312067130296,0.06163317259469683,-0.18653476457231621,0.13577857990042141,0.0475656113561736,0.057571047269078336,-0.5060073816932967,0.07578628783102628,-0.01913715883009333,0.16579940041050673,0.010156856610049489,0.14868381015379664,-0.02120792151328696,-0.05752528614461225,-0.032262592757436176,0.04455738923443255,0.1461886693312823,-0.20736319134738593,-0.2962367759497152,-0.055733962633351605,0.03464301544851017,-0.08871622332825266,-0.0075638433470882685,-0.1946756943549355,0.16258201659543686,-0.12355581512049774,-0.19149290935626695,0.03112523590454211,-0.17181733864133814,0.14469700538163863,0.04783332094448463,-0.05185412520218198,-0.09558817161761385,0.0857038855027075,0.051723020156288366,0.036648403945755255,0.045250931597464614,0.02421813200139436,0.029523155323658345,0.029993365025631234,-0.07166423949529754,-0.022323173187557915,0.003925253046138343,0.007650401481263436,0.023935329942510887,0.10980390661778311,0.001249893347258696,-0.03727783147576971,-0.015478183079298938,0.030640798434834693
17,0.13558272773667995,0.09800491365999123,0.0627433540988341,-0.10196077425582792,0.044053325329913295,0.18489983607270627,-0.13482361435477513,0.02197313071879911,0.01974297324319933,-0.09723154399630639,0.04434037592681683,-0.004017035700663363,-0.0017667735784068495,-0.08081362317828178,0.005347453470046315,-0.029222978328735993,-0.025003797388012464,-0.23890989343371594,-0.024667512534173153,0.019258296291885524,0.0029822107765322473,-0.011906760789336987,-0.03772285885327287,-0.027350174616163882,-0.07903432651794501,0.1433930759017662,-0.10018729195588677,-0.153433895594678,0.02867681156776577,-0.03723361394961247,0.12799741985675891,-0.07968772857136926,-0.12566468170585937,-0.08723738766498322,0.1893323917590897,-0.002650116877541131,-0.13267060813327214,0.11519216567543993,-0.13022030414246624,0.083105241223152,0.12534771358476712,0.03978242843105002,0.04526134362540397,-0.018300567067473444,0.03129243019405344,0.044153729172222544,-0.06100200716914898,0.04078241630136664,-0.039533029216234694,-0.05886999831842192,-0.09803265029019202,-0.040919686649814754,0.05613680488233029,-0.031948801459425843,0.10411479973908573,0.05817098152025907,0.030910523727659785,-0.052545188425760204,-0.10856826389962902,-0.7016729803322009,-0.14247517525275344,0.13155146721802286,-0.010226331782699445,0.1227416431855633
18,0.13589713513246823,0.10672202493510669,0.032019223941441535,-0.07748293579121449,0.05585593029203751,0.13552562019793177,-0.12182432509596151,0.023107952058547925,-0.012906083309669553,0.07528053083238483,0.0023027090121786054,-0.012272312800619203,0.019364547050576886,-0.07799107554380928,-0.0033214276678487416,0.005405330878800935,0.17970911667165856,-0.12683374251444424,-0.02913055672791541,-0.03718716730192409,0.009234604190565057,-0.050640828815238625,-0.04087483461258051,-0.13510591957828433,-0.04655521406903862,-0.16131630138995984,0.234720022029325,-0.2715806865934476,0.1569459197651131,-0.1701748359940492,0.0352915570040124,0.09708259570330385,0.045879179259910446,-0.1757667367118284,0.03245991404899268,-0.013023296512421616,0.2829707258590689,-0.28638892987763165,-0.35637861804891774,0.2028738997407035,0.03174306153575335,0.18799781221865272,-0.178381626529466,0.2658173145006336,0.09406260977066144,-0.1357501830371849,-0.034353020647032356,-0.023822960159337173,0.13925637511374717,0.12990962138232295,0.06445512741456694,0.1028100999695302,-0.05342639505187327,0.030220236169615812,-0.02276828850664737,-0.0026876990656924116,0.016533805686068187,0.0001465872399410758,0.024436498942306414,0.12047204009428233,0.023343023946509167,0.02792504912222342,-0.09493247153046483,-0.07705098128487811
19,0.13501947337114756,0.1226090707786327,-0.0023083750356526858,-0.023594896322993865,0.06753146194261406,0.0712750012824578,-0.08458816084633664,0.06438555389266076,0.0317303333152505,0.19446500827178365,-0.07644431252695533,-0.028631677417712942,0.044109104569084345,-0.006262493437046046,-0.04290269949724538,-0.06387899386942678,0.15227889308580203,-0.14528992699641685,0.07424149304899552,0.005155736518301396,-0.21276165112404255,0.12954556815101814,0.06808129305702473,0.13394552274271157,0.03630684545092218,-0.061415608717575725,0.03870107827341071,-0.1722551774087837,0.0006525702023837216,-0.04998923198485716,-0.03141379607225189,0.10801653001799348,-0.03977781496094718,-0.23105768693654138,-0.3696714797532222,0.011002659713675741,0.15589052086343377,-0.10304585825301647,0.2024669356774326,-0.19411047544789414,0.1243195746295965,-0.03847215552137327,0.12087962775153988,-0.14418080125388477,-0.01809217940220058,0.3149218566835932,0.2673581852387251,-0.12145220621948864,-0.02273223664592329,-0.048665207993710886,-0.08482592909136931,-0.0038548257266818597,-0.07167318122657253,-0.10924728356259483,0.2417975504757069,0.18171300942963484,-0.08826375016822392,-0.01933510087250967,-0.009896678675166429,0.0015551044319593865,0.014459484610154318,-0.07054370308268665,0.15466019492354627,0.08082057769325951
20,0.13390768511706005,0.1246533780484597,-0.03611621401262814,0.02927127604105404,0.04006993321403648,-0.02789990793092026,-0.16054748242174702,0.07409825927125906,0.008725343959225538,0.24730872218970212,-0.11323165234233534,-0.017945709711332358,0.015720997409360074,0.07967732534924521,-0.020714859444470095,-0.11159302226524284,-0.09229864803838611,-0.1217495799094194,0.001829169228699995,0.04163300705849196,0.06096788766993766,0.09770492922939628,0.09656577067573523,0.14184691168468988,0.08883924023944759,-0.11361230455197646,-0.07575216900044457,0.00591172868710621,-0.08038834677759268,0.009980466276843347,-0.046202019300124776,0.04788586396910337,-0.021925619414439934,-0.06297327080447734,0.01361024328434668,-0.06110270234066706,-0.10329539866027138,0.026894032226326907,0.08975431525890303,-0.10841884714183338,-0.06435103281288353,0.1050690237499079,-0.1348920410788429,-0.07986146729979465,-0.07655202890267193,-0.12789307491762328,-0.04402697042317873,0.03806324346548661,0.5139225624898208,-0.11641938808106087,-0.39192338241404295,-0.21021869227440068,0.11619437304323901,0.08291343437679617,-0.19621615875861842,-0.2083338581413656,0.1087772708969563,0.04278631880977428,-0.032301114278966925,0.0033316383024209473,0.0035140212156446367,0.04858384187964402,-0.11705490080315427,-0.13433129861894838
21,0.1291901543790288,0.134192404638948,-0.06632865771693618,0.07531656039481101,0.04484099966846521,-0.12616131088757493,-0.052549574468863325,0.09048835345878656,-0.005662714126028609,0.12864598857853737,-0.06083475707841418,0.07765181424994999,-0.056386683148209604,0.1740979545287532,0.003745022184623442,0.16062568981665534,-0.3418315422481196,0.05377575683853825,-0.0313829636684768,0.034354704276822724,0.14045557391117364,0.054041669185397906,0.1017306375783722,0.06257310414131559,0.03894059095717181,-0.14158388931578025,0.0034877160200111335,-0.19580019262679452,0.13764891937588755,0.6159595640096327,0.12886877685555653,0.181183540567338,-0.05688544428536127,-0.06249945421797086,0.12159235167542218,-0.026280413632944713,-0.05349006822020994,0.03638022781313056,0.011449978043420447,-0.056819901978796175,0.10082194001868013,0.1100735466287647,-0.010514192592253571,0.12405236808373012,0.09363097163991091,-0.09197617785966562,0.10549442281014457,-0.08256346058342286,-0.08474859078309166,0.09068952182473554,0.16647904296423016,0.10992145235169404,-0.03442185347213742,-0.0007912906496801153,0.03671218663071854,0.033976783423849785,-0.025048174939032098,0.006544652071892386,0.006592710354342626,-0.02860045801432351,-0.01275685972883226,-0.027820797017359813,0.08447801310422631,0.05104237656875105
22,0.12780034501190782,0.11941462923628775,-0.0770656628475023,0.10928299624183437,-0.028792375784341365,-0.23133465651464755,-0.10438576543454271,0.0797225512845616,-0.005857511803859891,-0.13851429101870805,-0.0004947989541825085,0.052938823072421606,-0.043768137548102104,0.21099536238456804,-0.02086736121172003,0.01944062451935402,-0.14569399434145014,-0.15360412107553573,-0.07852950554499827,-0.0510088606201049,-0.11289853785327486,-0.198976453421174,-0.21292150749589653,-0.322097430372263,-0.06930665751598669,0.06074434209982752,0.16345408567495404,-0.08445486634965961,0.08308302333007699,-0.10143450738512155,-0.04638288297975254,0.02660421305793246,-0.1710612263060689,-0.07827159679302646,-0.38417849650256014,0.08414465488941926,-0.03570306149605629,0.24507432806277366,0.19506110812813482,0.01832481516856363,0.0017575955162947021,0.051947756694914984,-0.06921765646362653,-0.01005269719741854,-0.17664937594130442,-0.23238846786487843,-0.21905611961427754,0.16109985263715537,-0.02523706002572462,0.03698209087411659,0.05619661157492726,-0.11102248741851979,-0.018657722851774954,-0.016341105055730304,0.09903730691712469,0.06381982292237173,-0.022363917270688923,-0.013757086761344867,-0.03719486156157506,0.04596401759834656,0.011946866583371255,0.012119624077050781,-0.01586484203295998,-0.004098118806174222
23,0.1274185018595204,0.10046472312568094,-0.0805374177455747,0.0980786194757314,-0.05379367557516919,-0.23871565396647068,-0.05517513293503685,0.0867919269075464,0.045009219499875824,-0.3314905850728371,0.10573955845849983,0.0001144941578396369,0.05631450800418586,0.08361192824790384,-0.028584073423194432,0.006427374062942193,0.2957430171273937,-0.10002994865083199,0.02192509098403103,-0.029605710810178085,-0.036257575339045424,-0.053132869241499014,0.06927415382768495,0.02700603513818628,0.11342661765462028,-0.2827557451554516,-0.09480135031269142,0.07694975656982622,-0.09590309481074753,-0.1001289856662331,-0.05669033498446239,0.014304702974514652,0.08332125799432577,-0.16171742997064203,0.23492368744663494,-0.1429789921803442,-0.15886725027210485,0.03279489631311616,0.20021943952870996,-0.005652532589439735,-0.11766659762391204,0.2591398797450487,-0.37365377057882004,-0.034281332842857296,0.08079273126545013,0.15079659084521402,0.11889770122001915,-0.12887436705493505,-0.1934144260085694,0.009833949873341883,0.11730669942824394,-0.03793570078063371,0.017176893493781407,-0.00019821650397929685,-0.02413574881672038,-0.009154054256721118,0.0383252914400668,0.02144351930494083,0.004338287808114447,-0.030088553155600356,0.0001400180208995655,0.024339078092432822,0.006719508122483314,-0.0037706205834079354
24,0.12627480576025976,0.08699081799193546,0.06597370226126122,-0.11491830920361375,0.058137284604329924,0.18089982563137433,-0.10912180121627396,0.11651235458233547,0.12370701056654727,-0.17706893965132386,0.12421573068857059,0.1343592928635969,-0.1795867721527238,-0.18293503664835425,0.056820203242249775,0.5412444343036493,-0.2059085914078571,0.027581420985653526,-0.03709997684955402,0.05042594109204457,0.30299681694121705,-0.010708657396290705,0.1230823548321955,0.04994167994692761,0.08289431376658891,-0.16087502404129983,-0.08758931680227638,0.04456586798203194,-0.08057798516414372,-0.16787529870914245,-0.1618406019912711,0.08492686684479302,0.20518896409884727,0.03765505277628878,-0.2418703028724709,0.002782097480771517,0.12456139091423993,-0.04089644841391771,0.07527123046907877,-0.025191338380558963,-0.12907858711495734,-0.06191502163863839,0.018634659366648695,-0.05605676379627826,-0.11656342876647699,0.03230402816605786,-0.05062898071584143,0.03150843875085767,-0.005783848127127622,0.03563428329408462,0.015654018376842403,0.06020578302192403,-0.006634369713022406,0.023336998681136048,-0.012935368601274966,-0.045445563939153194,0.02321820436298548,-0.00786862279570736,-0.008535623236626107,-0.09639895229231724,-0.028981228723823346,0.008805686364229792,0.017186828442313156,-0.03626929926424438
25,0.13388773662090114,0.09413414152375793,0.047697221512983466,-0.09804474251757837,0.04498458993105859,0.15735395672908842,-0.17157792744871572,0.08411473194074258,0.09642270347079783,-0.06593417772455945,0.06742522356002886,-0.004853183540463496,-0.05828243259652924,-0.19205007098475488,0.034549780459870755,0.06020448516511047,0.006685030809299081,-0.3086935325995173,0.01192110040336225,0.04013424690416165,0.11775061981517411,-0.06974234808064006,-0.0922794072706131,-0.09471649663539745,-0.08392539731240313,0.2165517829427589,-0.13850548494456505,0.052940474348958655,-0.006008858573471582,-0.04050123068256406,-0.016649929680823128,-0.07781667542240293,0.011947581331106318,0.13759020099425734,0.14899396337389734,0.10530941452131871,-0.23078735867497596,0.1845983624360623,-0.0022538114999498676,-0.22607213817363525,0.31491367563927664,0.09904214727613506,0.058067646049594926,0.09528298226666271,0.19037319144009845,-0.06632821365825062,0.1716428098416958,-0.09863551966644127,0.0015068780510988367,-0.0493273935268516,-0.03683822244994729,-0.025724102155962658,-0.0726239034193531,-0.021317722285684876,-0.00029844403928991695,0.05415842996076023,-0.04753480242155531,0.056926595432393645,0.031462099237208024,0.4300987062776983,0.1182751109081657,-0.07755219687869745,0.014760432231722003,-0.02417787022590223
26,0.13273887998341605,0.10739316214766008,0.019362383112075873,-0.06731300008877278,0.07559664175843718,0.10201205248952663,-0.11118653632286225,0.12364579451997951,0.1305643902955775,0.07151812214276658,-0.010929631312692555,0.005889651653818602,-0.017108851697108074,-0.2515574242606769,0.03358535737605156,-0.011065334493608178,0.29192833994734474,0.043943767313866886,0.08844134211328553,-0.058575128300002055,-0.2136942954782197,-0.12130434913237381,-0.12315781892729402,-0.24394993876734244,-0.022763550208356617,-0.062836785774563,0.222299135716008,0.2566727431719711,0.13893976958343712,0.42618576913452244,-0.04682528108829875,0.1349713390700218,0.19339204718346806,0.28110411295577675,0.106758260344612,-0.05274312107064379,0.008884777887146342,0.0030169756781247142,0.1041690619164505,0.006858677109939537,-0.05910755675072016,-0.06825941528205502,-0.026810445982031555,-0.18070618714614212,-0.17026947532067888,0.07118663916138518,-0.10210663134233852,0.02364197994274489,0.12137102105171771,0.02148575533212469,0.005023661058199069,0.01820628223234,0.025696913702949714,0.03044988909949263,0.031947754726086824,0.053726335115846124,-0.03501130783134425,-0.011479483978705868,-0.009512085913259069,-0.0770419747018212,0.005629597941967185,0.03032360600181797,-0.052840346554517664,0.011117901822119525
27,0.1355721822072122,0.11076034503157135,-0.004831925421755962,-0.011763083363161503,0.04500558566252655,0.030031288941832122,-0.1656818582072936,0.14227270238809805,0.12955543085708301,0.17267177412799548,-0.07817907463768207,-0.04295581684647515,0.03716873694941524,-0.06813927363170365,-0.0236650570526985,-0.1631640441618652,0.037667222992898666,-0.08281232828636684,0.01393166593357098,0.00035026598818760357,0.11760661637783848,0.034313690512342065,-0.015461890136318324,0.024616358802598687,-0.002512279649223643,0.02993597457442424,0.1882202163217107,0.20969180918385796,-0.08698178777102687,0.027655316787747006,0.03725519846321623,-0.13936750027844003,-0.17171350424944642,0.0014279325650108227,-0.17326398019795283,0.030785102935831588,0.1087579095250007,-0.06056647894010734,-0.021301396630260722,0.017885744495676516,-0.08113458725515535,-0.05016677586376758,0.10696896652432286,0.0423574818454603,-0.001490011451094314,-0.12428421751514719,0.15049050902566366,-0.08457749883035465,-0.4676622744370812,-0.09854807668475309,0.1918129345801844,-0.11070595949497794,0.14741411140086447,0.047479613968706244,-0.30553499429363895,-0.3569387005739798,0.1504879012132126,0.02877494553958866,0.014599750398641545,-0.06093416557290422,-0.04697823208915006,0.01079380013029287,0.025867494771265282,-0.01120976848602609
28,0.13100664503256748,0.11374113968840234,-0.03600969381645657,0.028852708151980565,0.02472783254842668,-0.044480416569054826,-0.20327341914517894,0.1772898377345163,0.15722211742404396,0.2309785863530617,-0.11534243240834625,-0.030700113134956623,0.05638467234454397,-0.0005821816554482922,-0.006093205841164684,-0.19793054344116495,-0.06677613917201436,0.08956752856671668,-0.03274879128937677,-0.004136128275919318,0.3023522745824997,0.05655264400295318,0.059402600208746215,0.08692446337918594,0.027100080200449912,0.020754671167474075,0.041546967818518826,0.24693645370231393,-0.17146814035788976,-0.10310629818347335,0.0018894757881381397,-0.23402040095990367,-0.10672241760516281,0.01251994265040357,0.08507472642836089,-0.0474214319422157,-0.052736775470461704,-0.009613108884879457,0.020094624240837508,0.13077915676942187,-0.18808087580653993,-0.09005246641162495,-0.10672697654670167,0.13275681134758496,0.09128704919553525,0.10349142202838318,-0.21848993833451627,0.1792112139099394,0.03445602953447195,0.10264562657996715,0.05695518669384312,0.1271180047207105,-0.15630742229449676,-0.09076160434339109,0.26270886194155163,0.3259762146294645,-0.14759514149656033,-0.02254803258466564,0.01419420186774209,0.04936238489887193,0.0037502047642462982,-0.03340295507130815,0.02987949068406002,0.030699101836384066
29,0.12283377360475521,0.12322616637773537,-0.061849598686007284,0.07395294068161562,0.06830109655897237,-0.11542128910834934,-0.03866237160538502,0.25345388011119807,0.2624642771762088,0.1417767513290729,-0.1061509678546291,0.04529021950712963,0.05847676116882234,-0.040737069939301485,0.04315508008883712,-0.06349290658715856,-0.0016250212983628595,0.6233975446908897,-0.05759549201165842,-0.06750801443500898,-0.10029644105625077,-0.15528110465846068,-0.05086354922476358,-0.15266837488065443,-0.07193638814418746,0.09230953990731133,-0.30215255908608246,-0.17327242544216342,0.04838144474796506,-0.23202086422357676,-0.01940084338691178,0.0732284386514803,0.1449801908711831,-0.08610091998606645,0.044935200863426616,0.06089232710328071,-0.03841384721086767,0.07801495980307116,-0.08929852517911878,-0.018879885788555775,0.15662882294871888,0.029229275041859848,0.06638125400336366,-0.05432989913692804,0.0199353955663815,0.03250800256267331,0.057225607060849754,-0.061719601890666,-0.03627243763485376,0.0008283316596654003,-0.02002882326746853,0.027663927737167512,0.02346720134043673,0.016740186161785867,-0.07509217957101672,-0.06875739169606529,0.05154783700938089,-0.0011475718855742043,-0.0005991805667006911,-0.033641772720922336,-0.006307117401050999,0.019170614632499014,-0.026209425130285555,-0.005868551663156335
30,0.12392351886444614,0.12451575365615347,-0.07929601286107356,0.10886763955052685,0.06606085029212926,-0.19850953326870524,0.19652743913228815,0.14122150360021957,0.1579207880639169,-0.1307721972450907,0.04476744801274036,0.0033263142218901694,0.05044382565486092,0.2769473420730632,-0.0460374668677795,0.11655983223046895,-0.08011542426912005,-0.09460674407718801,-0.051393293246822985,-0.016795377163227765,0.20582435773685637,0.1202483672032797,-0.030720370364191743,-0.03216009826235128,-0.18647529330933565,0.259361988238641,0.2923632057960506,-0.1127227366085824,0.1564871755350722,-0.12060775882602387,0.06657858133296166,-0.1262612973749884,-0.008168368553665567,0.2503090266633853,0.18764341777546506,-0.05087031420680845,0.06583117606850813,-0.2947918240326912,-0.04776399016946385,-0.07401910954326599,0.0016891323597140948,-0.07120020701464996,-0.0050877204690648326,-0.22904683645589946,-0.1267302636729188,0.2432521665947044,0.09941748522765831,-0.08249231415133482,0.07294101293394362,-0.07188148705831934,-0.0816440933181877,0.019902777986076675,0.010921760043331053,0.019628774484412054,-0.036005045652840684,-0.01771448856487931,0.014045061569840818,-0.008770913122326515,0.018401097163384422,0.009445147195775716,0.044733765719096596,0.0069102271912677565,-0.027130306143382937,-0.027957529333738476
31,0.12592170377568476,0.10165188208311211,-0.0751729846798036,0.08926680138670906,-0.04105082893262766,-0.21990040824083082,-0.022375389929244826,0.15152962332434308,0.15537438380087604,-0.3167166488496802,0.12021177769752128,-0.03270362611491574,0.1157723514896529,0.14338050685396997,-0.08535264050146861,0.08798099885983533,0.34702575493421156,-0.03288028471722213,0.049522657756627245,0.04192666043933389,-0.07691081307228387,0.1400390910977402,0.0600554562875355,0.2337240352582724,-0.024626633835622178,0.16992599815014056,-0.14980408357752384,0.11996499830030338,-0.11421863858227521,0.20228065412742455,-0.017333164299934284,0.08199763537357929,0.07652401139103066,-0.027927231076222817,-0.1552127875103709,0.055601017976631334,0.11911070583885733,0.019420879903020632,-0.23441616582918764,0.08632520662243659,-0.006199307456145248,-0.1475308729836151,0.2831565914840829,0.21103035789975713,0.09150549854327604,-0.22745558507148228,-0.05839574613251007,0.050914234701905134,0.1428324929413138,-0.004543841472733179,-0.10509866673638214,0.02677805704199193,0.0031498420231078975,-0.015323889059199243,0.026907993823101196,0.005664277216561486,-0.03196735482477596,0.005060502847136845,-0.00946819253766959,-0.006683891998346347,-0.04399284477539636,-0.02197440130470825,0.00701382850178181,0.026508652450959846
32,0.13341265359466778,-0.048155112690996454,-0.10060118888853387,0.09398606459218484,-0.18388529121521666,0.06293735752267425,-0.024672079845722283,-0.232082297486386,0.21641534473082466,0.003766251542427334,-0.005084534387531377,-0.20749171112084988,0.057867560293486456,-0.05705175385870284,-0.024256245240575708,0.03346198272292035,0.011496356077983442,0.025835612846657856,-0.25311920452523023,0.24263951320635851,0.009687688933465277,0.054611845134778694,-0.09168428748577168,-0.026838353644961385,0.09682997339426472,0.010198507871113593,-0.029174522803637554,0.0110375396200394,-0.02675297030038163,-0.009753521511584609,-0.10498737050856946,0.20399036845205076,-0.16596791416198153,0.035760193462070065,0.11118895488400363,0.16021578890902963,-0.017963708533224265,-0.1265408680367756,0.08491692901208026,-0.005155597315470606,-0.007801298801251896,-0.03692495246765781,0.05481535758179529,0.05487612475358669,-0.03346983287901714,0.030138124406175554,0.025319091578450262,0.008866047270836896,0.0314532014612382,0.12303394378531862,0.0600051743275091,-0.11159461026418288,0.05794184616655501,0.16267967812306666,0.10511140278913093,0.052036870053937326,0.2688109247744288,-0.3883242257271493,-0.011574663170757948,0.0921076841079877,0.06966443964577654,0.3555457146176622,0.17316095802385523,0.03603638394113691
33,0.12776634052691058,-0.09602455102836817,-0.10825445332413645,0.15954246615414092,-0.11965405031632292,0.09054238736539336,-0.04308273088001229,-0.2664581287624748,0.24657432846591962,-0.014339408150935932,-0.12014789324390987,-0.07433244798398948,-0.05218494816700736,0.03688313054476395,0.09801460126345886,0.02899983074109322,0.04062151689335802,-0.000771081653944171,-0.21375006347322223,0.1585983142265447,-0.0039197234362427225,-0.06794973969098436,0.013395205962630215,-0.010703014779528897,0.24103951095360385,0.0908889833429085,0.07742147686720757,-0.06982451446908076,-0.12562716844148436,-0.03199953327047278,0.13458393073575176,0.05840315953569819,0.018694748327682507,0.05797660157903786,0.045712355171329794,0.023468769858199266,0.1794417587804282,0.13529710241167975,-0.015423704584417358,-0.0708459652980854,0.00826447984346039,0.0233392220252797,-0.00771490889022014,0.06942160568151082,-0.0767463174658747,0.0962564967268917,-0.01307124195014131,-0.08300122779635176,0.09839122636498812,-0.03528705869552856,0.1790296095662376,-0.05097158886795775,0.28911875139170806,-0.1693122543321611,-0.1624420434699314,0.13682506471526554,-0.27911512687917966,0.33948989745771174,-0.12158878293333028,-0.05923194358054029,-0.03737489289824157,-0.1847956874384735,-0.11222568636024975,-0.03289014454317003
34,0.12111784332233932,-0.1445433659817527,-0.1137603079109659,0.18678525871186874,-0.05210360192793904,0.1355119687105892,-0.027531669528196957,-0.17523452518982063,0.1862010864480101,0.029972637919578993,0.0021268481695279227,0.19732009862330208,-0.09347768221974426,0.12333727526467068,0.29124878442949015,-0.028515125936109297,0.07585999236375716,-0.03592552879500634,0.07745566273346967,0.0038806517687911086,-0.022013401807376987,-0.04598339403023628,0.13735240224816936,2.9630287203749606e-05,0.10218220313580037,0.07266185118820345,0.05836827496671004,0.0497829238194964,0.1570266074094206,0.018409143083564124,0.20051540583278857,-0.10880325809861027,0.13168518519005346,-0.07030785770051873,-0.02455168476320929,0.04541921241956999,0.055772258939095654,0.17174130455493186,-0.1619984165993873,-0.17926803589146612,-0.15897695106499832,-0.013592614077846135,-0.07989100244353911,-0.09584555361616001,0.035841372680098224,-0.022863498755795214,-0.054413228046931425,-0.03503882950481434,-0.05314648947102481,0.07731108000933593,-0.1242716854524673,-0.029207466538033612,-0.40784391799942077,-0.21727015467400812,0.09194080004007121,-0.1739245048873621,0.2950790612565975,-0.09965038667865582,0.08318053300258876,-0.002829948905731572,0.0013264985884352404,-0.044513387079512474,0.007596098938530665,0.022838661754051633
35,0.1143511858243674,-0.1842021987888829,-0.050664369514560534,0.2579276746367925,0.09090969385850489,0.14594595547227188,-0.05218870281050127,-0.04572057374129592,0.058961946177425714,-0.03517672934827069,-0.056497707420229595,-0.07943505727675441,-0.19953848611095779,0.08237673922266245,-0.061180829788378036,-0.027765986991025234,0.03920596679761178,0.0034465997518487684,0.2263898855360975,0.11271075049277446,0.03184438899819414,-0.27199353748722543,0.1158172826552433,0.07284416839318442,-0.03861588406628599,0.047874839732876984,0.09448011600990501,-0.08193618068168197,0.03519474916823058,0.058350856567835285,-0.047831396874640095,-0.10983210547163949,0.12233504719780293,-0.1541998011761939,-0.0561799806526491,0.16833380891463334,-0.16451822087154183,-0.09000100913062148,-0.023028910534343368,0.030672579043954602,-0.09554164147892728,0.06391398204743515,-0.0029921201393322827,-0.1340472905659854,0.08887588570640279,-0.0611846228447456,0.06252672998932102,0.16700971569427242,-0.09348583464541968,-0.15285908446524976,-0.12329504639146632,0.20424286121366506,0.13922674159707646,0.2967326261754517,-0.10679039710089443,0.062121999208395846,-0.3540858489689761,-0.23894761315927704,0.08599289446801814,0.017029444694834882,0.006953870431861801,0.0543937601027312,0.00336059341831145,-0.012161517072349396
36,0.10786949839185998,-0.1830522457299675,0.023684344625265034,0.308880872487542,0.10138350254946216,0.15482757612381098,-0.018114555638917007,0.13249170058039814,-0.07438309914333231,0.0023854046607551453,0.1124195155440919,-0.1949432397721118,-0.2782676910746417,0.07783607567207372,-0.052114715940659924,-0.0424844357316092,0.006923545009572363,0.03465808982166088,0.22360847407518178,-0.025194632926742778,0.0037287871014759985,0.012966538960835793,0.15123021148519636,-0.0129258961773824,-0.10234931771607207,0.030183296942787638,-0.09677128749806073,0.009287385965382478,0.15015239808567718,0.007582209284205332,-0.31569148851790774,-0.09973824438339478,-0.1106871034507904,0.013424240279983235,0.14685951056029065,0.04915657438160495,0.18869861850546557,-0.021413694741790543,0.15866742510722587,0.1421882318265849,0.08421702862050302,0.024528760341562386,0.05211890423117843,0.018270784409197466,-0.012345737272338078,-0.025655568295340096,0.046874899791529166,0.0768947444241228,0.04282222590974162,0.15514682106084676,0.07038383148811729,-0.06554453434487408,0.15295509999548138,-0.13360276789737327,0.1569098070736777,-0.0022256374898078357,0.3031221188814253,0.2801971273594035,-0.1540707011180562,0.024228718803985753,-0.011501465209649175,-0.030174544242000487,-0.006151144301443881,0.0068202338945581465
37,0.11450290494003766,-0.15162072333559096,0.10209911520922041,0.2771949771854829,0.0032586602119944975,0.11040474420428187,0.018578193624325452,0.2220289083031482,-0.12650636549308034,0.003711426485942062,0.1110253774355945,-0.3077987370514981,-0.15924581335204505,0.000686845037648509,-0.01739056987758709,0.021170034062187155,-0.04116216954280954,0.009116027002234676,-0.08475233276919998,-0.2320141053104254,-0.07268386610163827,0.2024040128092013,0.10961271694485154,-0.19528380991153435,0.1258963754603821,0.015531469942247966,-0.05959188484214007,0.03164113747532788,-0.05717546120434454,-0.035485125909469034,0.016307629276546963,0.09039252185704487,-0.1061882836929499,0.08480236965388674,-0.03859505634267553,-0.18553586355813056,0.02081974723120006,0.06178805331413484,-0.05386856525675841,-0.020157237570785427,0.06465742955020544,-0.04684382619141538,-0.02842065110122667,0.14853906581512696,-0.048248045452567,0.0680091829601261,-0.14086002738912592,-0.253109355030458,0.0477899314855528,-0.1372917567897039,0.056823784368318975,-0.10968578412691474,-0.2529488677563005,0.0010883042993032888,-0.1787682592511457,-0.03490024606270943,-0.24473658457483316,-0.24591979409145764,0.17764115002381706,-0.06511824137602348,0.017457364537671077,0.01105973633781173,0.023557096839554065,0.0072177198152494695
38,0.12343988844030966,-0.09048719834410565,0.17850383357745256,0.1772239978039313,-0.1671504202602961,0.05723701313055883,0.07167814831299774,0.19464320918830483,-0.11930608052925758,0.003607161591263995,-0.04375442729204669,-0.24724193199983974,0.11235098626460371,-0.06670674693309818,0.14914657958478114,0.09453831288044864,-0.05043375846018405,-0.04360376383316829,-0.1434906755756331,-0.2780645215276968,-0.04101385292894344,0.04354617265249911,-0.05834633944203916,-0.024128546238674747,0.1534202398275406,0.008899906712349609,0.058759899808330324,0.03548949044528843,-0.08246187687072032,-0.027266409738285126,0.2815848262342221,0.11182082995454692,0.10080033548498916,-0.010467581162947173,-0.11908940561235218,-0.0748670566886243,-0.2634158511860736,-0.08849761977456588,-0.1749411840369759,-0.10305136534665654,-0.0768712127552711,-0.03832316101127219,-0.03241668449568526,-0.11015612414363504,0.04002119473964783,-0.06648005162249758,0.15633444298560162,0.24104160042947254,-0.08290892658465368,0.07984327213501385,-0.09129129795623805,0.18562739802854816,0.23782924886729853,0.01972924523089941,0.1802548294323969,0.025797542476676462,0.18187803118827192,0.14040996357130409,-0.11339443415362369,0.07398857761508815,-0.013853595339221411,0.005352388863278865,-0.02584217321634774,-0.011856945896061226
39,0.1230657554241639,-0.027235090874100514,0.19858076242765446,0.06825336935912898,-0.2501451002941956,0.01313045179797838,0.09589416943264797,0.1168916221879788,-0.0873062853355411,-0.021588444272991367,-0.2533046745996742,-0.11477565200989893,0.33556143236398717,-0.0581373884195704,0.27154499125296827,0.14674380846856763,-0.04225510331229849,-0.021289175198866677,0.18683301971883742,-0.024671659148651368,0.08104635840437112,-0.24000809689988417,-0.22536276075408232,0.3264978768711151,0.06704757589381152,0.058010899879529954,0.016667188259037333,0.03184111788250102,0.23656020675504869,-0.024744681918994052,-0.09203867501691436,-0.04881737611707729,-0.035184255921272695,-0.026357072644188267,0.06739679225292025,-0.05474926613028547,0.13228094894367196,0.04901256418358673,0.16180139881380484,0.11151600180518816,-0.015954075484319707,0.235698684552915,0.19845884723172097,0.021535716653239695,-0.026013678893644726,0.02222295502672267,-0.10420125442758371,-0.11995505025462755,0.015392216799759217,0.0381110851217108,-0.02712000590901234,-0.07728756229023818,-0.09279934131941599,0.005298019930375094,-0.07757177274816995,0.01412031172458469,-0.06796423348403685,-0.04855011006565503,0.032785664378684055,-0.013852964378263485,0.000214368603196409,-0.01375653569754462,0.009606386832439959,0.00022839815943385142
40,0.13442057157003454,-0.06073642335574016,-0.11973112394379243,0.019898394389451495,-0.19608185413487553,0.043648156708975365,0.0104406007194079,-0.1456121159855158,0.13068135496189076,0.02057393892335432,0.06094169403517728,-0.23654636086626488,0.1181885567876179,-0.09858268551491377,-0.21812952757686802,0.05290267805806126,-0.08873069995012549,0.027138621660224547,-0.1140267793086727,0.14445793199067883,-0.029504178139043408,0.038523110416496295,-0.14135292780884995,-0.042809829448976114,-0.12630962421961142,-0.10304101109416616,-0.031079130785948206,0.015174629726509903,0.04617616165283339,0.04297551561822527,-0.17046395585810775,0.07094238168824217,-0.0816391180352032,-0.041534132324264575,-0.018592363921222498,0.03397564113494424,-0.1761816269829658,-0.19977211893091917,0.06250131223941036,0.08712397126401923,0.01694986817565488,-0.04571246976060388,-0.02967410385304578,-0.09584156701971902,0.08539540255822371,-0.07466150272506358,-0.06391980475214216,-0.04818384156506857,-0.11471814126084055,-0.0578077877443683,-0.16701626006496512,0.1088580178131448,-0.2866718638715409,0.016301708256170264,0.12801423612438909,-0.1952830490614696,-0.033930106135657404,0.22191900849252416,0.14910007493858976,-0.1066557407670981,-0.07736958945983782,-0.4045805392279309,-0.21294134978165724,-0.04283269743172321
41,0.12332986597956953,-0.12199818703140043,-0.1709122608708909,0.024645871221985693,-0.1531465233914593,0.09753134986445383,0.026390150541149984,-0.12090427116652167,0.12880081261597992,0.06980401981722538,0.07270037226978474,0.30626745821869955,0.07042862953048178,0.05673869143614296,0.2626277804206165,-0.010604215074138501,0.03443030163872263,-0.036831775074055835,-0.043148817063973784,-0.2358548473045689,-0.001415427522586693,0.2719780698247367,-0.04114289299462499,-0.05901267670230072,-0.17466595018969713,-0.09081343209743717,-0.14425020222724194,0.1063079853812755,0.1408849182783493,-0.021240771215879917,-0.1762156281435065,0.04251636651488656,-0.11477584331933545,0.006311520156839251,0.001920516162520286,-0.2279320148132646,0.006238159060679448,-0.01578555942044274,0.011482560870157199,0.06877990671406883,0.07185514298798572,0.09524024883665057,0.05784662994180695,0.09699920634149757,-0.11710065329491012,-0.011608214257899374,0.25898521362370064,0.3855937926344618,-0.022029435424503863,-0.1440730568594015,0.039420782517426235,0.016804678176990585,-0.05897229561445235,0.15563279451936052,-0.14962677799367308,0.11979867767218189,-0.11504829194080983,0.007872104198837403,-0.045488130339438916,-0.01700381360893949,-0.01470020363698367,-0.02114180322223773,-0.004972423378786131,0.0038667074731115626
42,0.12065453425446501,-0.17415968791411335,-0.1598739220783263,0.04510279371963425,-0.005444239079748472,0.07525336330601437,-0.012783636693702539,-0.09014497549974552,0.06475375205529744,-0.027631193977484158,-0.1644356378653298,0.27414701548263964,-0.008137803376121527,0.01995747525534476,0.0809619251817851,-0.008940659434794135,0.01806895642716256,-0.04052750086119141,-0.0034114588767678346,-0.250293287071123,-0.0016272351930031112,-0.01633094961415788,-0.037207982484830704,0.03928781015449776,-0.061701427986929,-0.001383782338963184,0.02479306077169802,-0.09780134605520788,-0.2548334215785244,0.020863968701095623,-0.018193303826968533,-0.0450290144496876,0.002518663810282387,0.11839712911570902,-0.05861973070702828,-0.19079433745331392,-0.024281961418620487,-0.06600644567066732,0.1397750297225634,0.18136068701426786,0.18951174064152027,-0.06111891660895827,-0.0017179905477713031,0.015729265230678104,0.10442257097398054,-0.05207057586336019,-0.2230587551967222,-0.34148999892520215,-0.010409635195184008,-0.003473170497782424,-0.09856883866739499,0.14386290192485232,0.17149427640578283,0.11477366494444935,0.28420541549703393,-0.2284459767408841,-0.043971302917143296,0.14845336386518854,0.10532032455747073,0.045158073270932714,0.04283574685266352,0.24026620710800192,0.12592355845675768,0.0034126549818624717
43,0.1111354620847302,-0.21388473675215924,-0.10322567282419566,0.09519256297274589,0.1750991296607264,0.06089450207970559,-0.04165470808013172,-0.017598589645058747,-0.04840658141396404,-0.09160252294706826,-0.18549549208516145,0.15951702713842333,0.04824701050439129,-0.017643843763956522,-0.15542039161831425,0.0034173194119131536,0.0015500726310972385,-0.0018364708718532385,0.17642437986198856,-0.023894787034719686,0.059045634852170764,-0.16490936847234006,-0.053347815029816684,0.10245818518706029,-0.11097293903787517,-0.04755327016192849,-0.0010398993936377512,0.0120096950557292,-0.09268286487022365,-0.03788961425492582,0.19854939025297136,0.1648231415802999,0.03346920955271611,0.03996510803561205,-0.1286490072760135,-0.03753708203118643,-0.3400529158034746,-0.24860232687261968,-0.0049007892987907465,0.06805421829091722,0.0764588229311295,-0.15110854511715244,0.039801174883919536,0.14014026018484763,-0.1045835646247966,0.07097193902626396,-0.006845171547494214,-0.09111003518037514,0.06765719942773152,0.07662561262338256,0.15470971039339734,-0.2665602013394046,-0.16591007107287523,0.017224203187670505,-0.20817370330676185,0.2552937013757569,0.22497395159034297,0.0006489963319463651,-0.16779477828997885,-0.022772622467362932,-0.019923778854496185,-0.12946858010870485,-0.07801820666035064,0.0033654368728304566
44,0.10644844218416562,-0.21413802366154241,0.0265179399171136,0.1711862533055165,0.23159166960041913,0.04014886904641365,-0.033660844234536795,0.09043892830145146,-0.14001134793427775,-0.0012640581653488127,0.14041720085472303,0.1682057930458876,0.10372086740582043,-0.03143926855396901,-0.11613346557505816,-0.05360343516619394,0.02111849854260641,0.06135749664100647,0.03579542689773507,0.2754391939350299,0.09257358701189455,-0.015865737888232735,-0.3917619092015592,0.13568995632781938,-0.10449712425633774,-0.106270295059919,-0.03718348702367021,0.04808583545418702,-0.006354604337897019,-0.07566863588971727,0.08957998707721593,0.19650462736359203,-0.10611363622166145,0.07229934478160244,0.0416858071699355,-0.09790795990097646,0.05096765497313194,0.08547794822672901,-0.08383253734749038,-0.1538216623418791,-0.051611936932739716,-0.0010716163329043543,-0.06912047502947649,0.056142253791895635,-0.11427697598403583,0.01848274685371512,0.1235377786784887,0.14555746929709584,0.02412473022881917,0.07160778889464992,-0.004375982019539537,0.03363091678980763,0.12831642794907291,-0.2975146839336806,0.13205205606393583,-0.22506857236344333,-0.1807355217127885,-0.048731608077365346,0.2444511669042099,-0.025092560228953047,0.03281047287145698,0.06308871573361699,0.0535831707181017,-0.0026985651087747
45,0.11557688256312916,-0.18616602116693737,0.12291244629437499,0.1565642573280269,0.11801568464032011,0.0046502916450520074,0.010787182346367028,0.1188966112346957,-0.11640528662386472,0.0638665161620827,0.2190725920443044,0.17110424034324057,0.06685099564899666,-0.03631826205076183,-0.05038132629939479,-0.061548114396823145,0.011769046120383616,0.019349657079183232,-0.24150319065145281,0.17104576446120157,-0.012592339297865282,0.1358842089927273,-0.23291370953974863,0.04100821694694748,-0.05620023165194708,-0.09624288171944245,0.03209894436622132,-0.04522750902088737,-0.11382250651821915,0.05058658935878138,0.09018286650699123,-0.1112321559437881,0.0780901792817581,-0.0029819405244797675,0.021492470865317137,0.07810607996363383,0.2458512080864964,0.17760886465091796,0.06152115850069183,-0.02948604457687494,-0.06732345726598685,0.0851601171697169,0.036970553097667135,-0.11170073668959432,0.12929110719921247,0.018165475840901973,-0.11623009796972024,-0.14508421427987112,-0.06888983284559681,-0.1128962875951304,-0.08925350883815457,0.10368969531714353,-0.14696245726024043,0.36500220624203616,-0.06264534863103059,0.17350158140441108,0.12056788121562345,0.04750120284803064,-0.3536881397618215,0.05333375878516902,-0.05283327030959557,-0.027330841357045013,-0.053732276660592826,-0.014860909112863524
46,0.12279103223400234,-0.10686750503841055,0.23248940697267761,0.052127714211748256,-0.13375714394002206,-0.03424166157478744,0.08713267070132463,0.13160055057590883,-0.0785028355611328,0.08571845292920116,0.07063287666296725,0.22705164837657565,0.07348854680687626,-0.025125087290156178,0.15089576537734886,-0.012581870219072118,0.04954452375687459,-0.06772834445613019,-0.24458211294806229,-0.01711359528098809,-0.05286227185875292,0.07832289807266601,0.124409213058917,-0.057929054595699664,-0.17902269629642412,-0.033170069937840066,0.018565178858746728,-0.06202372104545106,-0.16629492665632006,0.08134170539010649,-0.041153220178056865,-0.10469565656298915,0.14554317694962066,-0.08714998093170363,0.06342974061915319,0.46964315156673003,-0.08179167821656191,-0.19110713352329028,0.1532239531496223,0.09112804928885274,0.018504126872112628,-0.04930190149819803,-0.010496150758454795,-0.08079136002813472,0.04847580354852868,-0.06951438749088687,-0.008722289460684124,0.03849036840156036,0.05097339741410576,0.16111015155697483,0.05184680610667085,-0.1935995368524267,0.02744002658164204,-0.20740393043466546,-0.15888498480081872,0.054611049955795216,-0.09635801151961941,0.04972924503965142,0.2880397227441231,-0.08081033293229267,0.04257717890967251,0.020180798399229927,0.06151404295087781,0.008653813374156848
47,0.12291995590566511,-0.04386371938228164,0.262662920167539,0.011342570213139164,-0.22146534277716118,-0.04273187900638776,0.09662823556612006,0.06678175014696865,-0.044781337656864394,-0.023224090880998173,-0.2552352742035705,0.05838324953982344,0.13452876002117195,-0.01825330571542905,0.04451167976285205,0.040863765548445584,0.027376111632282485,-0.016703689716143368,0.12124296249849799,0.24079247493981773,-0.011365323785816929,-0.08916473817274509,0.2001987235675406,-0.06146195800076981,-0.18321158913074953,-0.01954476157481591,-0.0013381023624488286,-0.056612649756355535,-0.07885945785253334,0.021119969533850924,-0.13837878236456075,0.009427559726555887,-0.07694703670062678,0.02424791504617646,-0.0011206042345127398,-0.025367867252237417,0.08919859779558063,0.134915086636895,-0.10940666491757378,-0.09279592030659281,0.12726379712108601,-0.38392325206356065,-0.3718484790724129,0.03515617149328816,0.0061938259865018455,-0.007304419523377348,0.07752919364510871,0.050496819363927144,0.09914025143363585,-0.28991013051081277,0.21790449486715144,0.06558338414287451,-0.05000025939473445,0.08338926049693951,0.10763762329986619,-0.1113108340385692,0.04023594176558949,-0.04163045786592451,-0.13476187868135958,-0.003932589989515303,-0.018495824060768634,0.00010288687386078577,-0.018748924884735396,0.018289094537704387
48,0.12842066465343757,-0.06467918701209348,-0.15639045910695787,-0.08041001580307215,-0.23069898574308642,0.03692077175542609,0.055776927990058595,-0.009086409525533776,0.03671900226015826,0.12153015053638139,0.2797907651183393,-0.04781712415094451,0.19471232604013514,-0.01284166708767895,-0.13896479227741687,0.023354665553769985,-0.15980143718584566,-0.01728586302267049,0.23287289583297244,0.007850912444637436,-0.014545578034811213,0.09525734268709629,0.10983405960269683,-0.07667360153427165,-0.21918431318982712,-0.109760349869366,-0.09976280651715758,0.23857315817810554,0.3296940111898562,-0.07505249660047981,0.2945218273400178,-0.08260587629563951,0.13176508790701427,-0.13786600252438194,-0.10473152176576125,0.13014149745471207,-0.016613357377597282,0.0852159625117942,-0.0018935569752936976,-0.044054014900005906,-0.03487094038813541,-0.0483630879873061,-0.06196218354385492,0.12534183144915484,-0.030963494737552263,0.10089131505250643,-0.1498710247822918,-0.2266342405286599,0.06278891273173023,-0.022665968339020827,0.05491327151034379,-0.0016663439840946493,0.2923606099402404,0.04591488567647144,0.02577251652285341,0.04567554126587728,-0.043964133260041116,0.029209898983765345,0.0017954396067200347,0.03557699814947504,0.019515280982351377,0.0922727168035776,0.034330854358776836,-0.005377394086568393
49,0.127718047820279,-0.1211779510436326,-0.17340099682735285,-0.10766873771709196,-0.12383722787249074,0.027249099394872148,0.040309192323727074,0.00015162407502854246,0.00912834874391031,-0.036775108238205595,-0.12061765025637809,-0.13940428513613212,0.012605920102862324,-0.0885068313439713,-0.2976424576594874,0.05980604322996345,-0.07346309853978063,0.0259446075732222,-0.07251408944764441,-0.06991959263728995,-0.04929628791843396,-0.0002696385131277998,-0.10829148120080712,0.038998491237245816,-0.12056225649490024,-0.09119399383239198,0.04211471055889897,-0.10614919432816913,-0.022345201719523356,0.11314760496752252,-0.1964326454154291,-0.2533212201357823,0.11768274509868518,-0.03360169666854154,-0.07234479683171396,-0.17737270393898427,-0.008794069328184762,0.06808113208419404,-0.18026382368144048,-0.08497373647977928,-0.07109457028466262,0.020553446103281293,-0.025513628004000186,-0.17873406493180805,0.11969706879463488,-0.05103082264790351,0.003002968884202855,0.06031828005412247,0.017286986158578987,0.016509103023699775,-0.004775617319501879,-0.0089755859797047,-0.13138904127291626,-0.36240903730726143,-0.2608103765862394,0.06798369641313129,-0.05004753545339963,0.08835385532822528,-0.1892095517507797,0.04540181598402675,0.06583630254525119,0.3309954113524235,0.21925582391598863,0.058321917329915915
50,0.11915441338267037,-0.16162692980025087,-0.19043124145486695,-0.14936587197070622,-0.026817268155956114,0.009133216375640178,0.03207169435329147,0.06087990579179575,-0.057963764572458165,-0.09144612455279781,-0.26392034978706963,0.03097010741835952,-0.03405899828806222,-0.07553934641480983,-0.1788480606110841,0.02511962680602003,-0.021804234415779035,-0.018875982621937282,-0.10985985132519112,-0.22748501780170255,-0.0028846392765885798,0.095028797964207,-0.004888143318175171,0.036141650213973135,-0.09376516881082196,-0.034239865935010425,0.006040463239603316,-0.03993695895875907,-0.05751680241733292,0.034730633603339556,-0.04955065442752932,-0.1475610840032518,0.051660439328454,0.011482375629880304,0.06422602832510803,0.0283139176207874,0.17659049356946557,0.1922597302047095,-0.02156636868688379,-0.07202559806215166,-0.05063319015805745,0.06517176020843396,0.01720492058776729,-0.05336889836794104,0.048729792290463925,-0.020020730750629073,0.08285095857944927,-0.022282780986774706,0.04357335927160068,0.12415613960861974,0.06049953703243924,-0.07740905555361752,0.26216084489229685,-0.0029078390179307773,0.13812941509417065,0.021133345466616923,0.09706677982346296,-0.4587187749073297,0.09820264353132309,-0.0030346249444063653,-0.06220398206138769,-0.3790460268636095,-0.2506496088148167,-0.04089434911173713
51,0.10720676606975092,-0.20307801435296602,-0.12653727208130272,-0.13398621648146702,0.18740298007929515,-0.06775398636350233,-0.027342437182718313,0.028844370292210316,-0.09872840642374775,-0.1490874196158125,-0.32524319871256085,-0.017100022458047707,0.14764345772472556,-0.08814724253200491,-0.19230787482894712,0.06381410384449068,-0.034022591607549356,-0.025204878870512443,0.023972006775740726,-0.15488150430366568,-0.023419328199219547,0.08301548603285189,0.17074660635677813,-0.11902532990421075,0.11347866414767663,0.0551779468936755,-0.010912551945039907,0.07387695240479632,0.0241729541252932,-0.05203225256786441,0.11049621453528224,0.15971717763306006,-0.0735585288497564,-0.005140447501857187,0.1816906179858567,0.3897998989909303,0.15398182967125132,0.053718214713274745,0.07173679077595985,-0.052619219207634606,-0.10030396867832986,0.13270174491778283,0.043712879130547166,0.1162566886100832,-0.1496217843846375,0.07827685613879376,-0.005020531574198024,0.16181058557481315,-0.04395552739215733,-0.192146444350597,-0.07920282394339129,0.13731107255830677,-0.1869854602249208,0.06937965671053666,0.015028436230327962,-0.07026058231888836,0.010392768816278734,0.238297059953685,0.0740997286449863,0.003657922259386645,0.02337691303751662,0.138019684332052,0.09978933153953298,0.010899912634904465
52,0.10560617819730601,-0.20987285182054338,0.0023317185790989814,-0.07212866225844473,0.2929197073037511,-0.1187332676049721,-0.07394049768026166,-0.06974057671392543,-0.032707157667441276,-0.005611110865997623,0.07061914375409666,0.09471464035568995,0.38190973849626547,-0.0449247877312231,0.07901354472818814,0.05129776979325359,-0.04554127358018866,-0.013313296146326132,0.08797861109180424,0.04267962045333476,0.017387008070355002,0.10470796757983666,0.16543020180378795,-0.20989959589166574,0.32571364376307543,0.15859280504755646,-0.04504764969975715,0.057393657737453474,0.17293592770170715,-0.025788935635224816,-0.17624618193823344,0.046004971584289,-0.14960214994095006,-0.01509138395968912,-0.03375252203248674,-0.05287221698382314,-0.024547879250218285,-0.09831793696367093,-0.027176055994274043,0.031227303295252792,0.0374803439485169,-0.11551159816762537,-0.08342122732763763,-0.24750654475854492,0.2471798173768518,-0.1424519495483665,-0.02025737682826273,-0.07868825376903466,-0.03039490156536684,0.22517249866951355,-0.02189561588018621,-0.03267783090713416,0.08864028439336262,-0.06181182663141533,-0.053826606110199605,-0.0056597530332003695,-0.17047535550316245,-0.09994806727263797,-0.20793588399954152,0.0026293078910795825,-0.017528698698868573,-0.04100273907545283,-0.031565573620144345,-0.013758444746110604
53,0.11698083804325057,-0.1699410762988718,0.16177601270130618,-0.03897117714767714,0.17892250933127146,-0.16095720613295614,-0.04224843361653545,-0.09708989306564392,0.03710613299265303,0.06269799771183969,0.14277099149082062,0.02485999502103439,0.13454389736551042,-0.06613136249276928,-0.13072984288372116,0.019069664571873993,-0.02529198222370263,0.010820608476205308,-0.2027864214919726,0.06022799804769666,-0.04161827415957542,-0.10557422535450914,0.07678768746930222,0.04587753775725292,0.2520912532167145,0.10821433627554039,0.09584176240920879,-0.04530327322905391,0.14814053717482847,0.07719533403814162,-0.1519383271600421,-0.2838584104110906,0.17925533660328136,-0.09703326956532979,-0.08900621311860282,-0.23015247200540823,-0.11016585125531514,0.05364794361082563,-0.03948578675599956,0.06987620483671811,0.11043563639322512,0.027950124471831574,0.042282327884635415,0.1636421948612815,-0.16479635056554126,0.06046185921463115,0.03101891368494042,0.04478144938742748,0.059783701668416366,-0.2472405043769182,0.08225267800711324,0.01921221082456801,0.0783221804152922,0.05042618033901504,0.04938682161567168,0.11781455259737703,0.2698564463395844,0.06522235007561528,0.3669690430240056,-0.01118425300080635,0.028560842144948494,-0.012048093512198182,0.013829351502875814,0.029164024490414803
54,0.1221273179087958,-0.09859119423951725,0.2703799642320238,-0.055391139940229504,-0.058688379484558933,-0.1487444882327916,0.032001543273047,-0.05630588181013232,0.06083329142213166,0.07147768421127987,0.016016034352716615,0.1105526863050263,-0.12877674852989981,-0.030284443432537746,-0.18205233661614115,-0.032881711956552484,0.03744573075285988,-0.015009865204364828,-0.21195333018013854,-0.005714615788215297,-0.04588994172837037,-0.1189215709682237,0.21662952834695093,0.01642152260597373,-0.05824141140058363,0.03372251810345768,0.01693506686860004,0.05910380224871534,0.09426315559169618,-0.013400004421961292,0.06796208159890947,-0.05326397138938115,0.06476155227915237,-0.0027105982433293097,0.010837954579540354,-0.07442111918714162,-0.14299844448712357,-0.07769318390684732,0.04984100774725765,0.05055243112874404,-0.04818389795720736,0.18154004277330266,0.20789683418328803,0.1736141582696309,-0.13743549274954814,0.12302641745598578,0.04214056447949929,0.04084007141741128,0.01703020701930455,0.10874088400215892,0.006478699389879501,-0.06843524450778582,-0.08569616916018319,-0.058560092453091475,0.19125215380933797,-0.38153508973768363,-0.24181045218598038,-0.11609135934712003,-0.42695514633551007,0.08002101044663082,-0.04475681646182861,0.003001573212339431,-0.03761952571887309,-0.015233693946433674
55,0.12348642042890737,-0.04376893712935668,0.2782365676256924,-0.059059793182584024,-0.16844898141561587,-0.0788802467413385,0.06482023455985779,-0.02950255074952207,0.03301636286613406,-0.014171151739517166,-0.15377591410266936,0.1414330147577503,-0.11566632936654331,0.020766695256430316,-0.14396050596313378,-0.0528914400503477,0.03555071320548091,0.008377792173947608,0.0639343467392549,0.21696718884029054,-0.008710496138939525,-0.017594208683442976,0.25255898487290135,-0.19616745908942862,-0.13812645985575853,-0.03590244235235337,-0.035415849098680036,0.05850858414505676,-0.030254674005131085,-0.050371103329159166,0.019774040850212365,0.14778158297880858,-0.21964148775898124,0.13810555418401402,-0.048802865648396976,-0.24363368376923808,0.03994369852920979,0.05751494722548976,-0.1032004684868449,-0.059292823335992235,-0.10552836313067601,0.18093744590440916,0.13551049471782267,-0.04014480388065245,-0.0042276189565231825,-0.03108724515017798,-0.028504540348826726,-0.10867079983830313,-0.1689016296724789,0.21060125425729698,-0.3112330663508005,0.1019424441867252,0.09252897556902581,0.01240294418138177,-0.13180868651887562,0.28262633884831057,0.10225041791839148,0.07282409777331966,0.2124784123580673,-0.0027863736152040075,0.03496805235664543,0.005682969196535282,-0.003804666749065433,-0.015597778671937297
56,0.12620679060229753,-0.06055100389200333,-0.16238973092700498,-0.14856656899410284,-0.2222642682219141,0.0077683657712268326,0.06532806874760105,0.09175682805664413,-0.00362016748432685,0.13662738908929836,0.32127201486360507,-0.02777662364158931,0.110337469412925,0.003383899837055446,-0.15243118867535504,-0.015743371014231167,-0.09435513515293703,0.021866242713751965,0.23802872387810414,0.04135257926403282,-0.041139382137935276,-0.1986617718928602,0.13331515379874537,-0.012824606385484718,0.17797825289625496,0.10349969386849879,0.1175324256678062,-0.1291610193331679,-0.3328109669797164,-0.04996595357170967,0.22245138714395934,0.03982839586059815,0.10209625567805615,0.1612102846086397,0.09272042843546335,-0.12032278089669335,0.21045904663308157,0.048678074452911335,0.18462763239653274,0.15403116033509462,0.20399309694031456,0.036569208990263086,-0.012692582225196203,-0.0457665321607191,-0.013681039676008477,-0.11692919741993558,0.15855973164511256,0.2298933266452826,-0.02068093255766712,0.09555537605798294,-0.041968296590368034,-0.07332867962672736,-0.14457258323761113,0.03960179773713985,-0.017126060221109546,-0.022671768066553827,0.0012824862118051839,-0.061792224345059446,0.028165823483997484,-0.027076756866585866,0.013268721811295243,-0.020216739107926346,0.022015877621370514,-0.0026536107033094
57,0.1168994662071531,-0.10205168213494686,-0.1857634440871664,-0.2287093956915225,-0.18377978773616938,0.01213808058785303,0.11012514546901715,0.20675263837099445,-0.12371628496831168,0.11460536593095348,0.2578526577489404,0.15722439768270416,-0.07685971679532985,0.05379146071092721,0.11018224699731655,-0.08292253967280194,0.05225845672074803,0.01152511303230166,0.06967146666029601,-0.0397497506299067,0.03699802783989481,-0.17109869253435628,-0.01737995477128744,0.00884054234809019,0.15915387340023252,0.08688705618820403,0.08186293639655581,-0.11734631656726535,-0.1169790746426476,0.04332974424011385,-0.29171112799334287,0.16991448406291962,-0.22563031908304615,-0.019843999558680422,0.03364099999518028,0.1446257141475195,-0.18597229095645398,-0.07426950623263842,-0.16368065930530692,-0.13181012290195812,-0.21304030766008789,0.07709542316313918,0.1170518959279578,0.06296448730622624,-0.048133180646880824,0.1353677651901249,-0.1421458910711119,-0.13042294400724824,0.017985113456549226,-0.23653157087269033,0.0516374367994034,0.16332686190339588,0.08249597506339093,-0.152309820865605,-0.001137093704985881,0.02327735741819905,0.09672520499102923,-0.039113632248945325,-0.0973445484152047,0.03324922473931059,-0.02113168597400951,-0.047947451068988914,-0.06927549125522005,-3.41892638015609e-05
58,0.11350392183999908,-0.1373097179538188,-0.1840604794594044,-0.28134768395051607,-0.074441996901727,-0.03000499079630134,0.08583989916106546,0.21964740716855866,-0.14204735605314045,-0.006494754435008507,-0.06133765357526074,-0.034348036259295917,-0.263747224806806,0.05062358600295862,0.0848738704728741,-0.06859150312226563,0.09853857451203085,0.015532252145907132,-0.13774473295302664,0.13496594894894332,0.024498647535352584,-0.034851289877073546,-0.0657528211746351,0.10849840300860937,0.11979741089668915,0.07514835405312686,-0.017062663274562094,0.03530848856916772,0.18822969904772435,-0.01846947826745146,-0.0290769976993306,-0.04729298406536283,-0.011951092530844587,-0.06788973065797108,-0.025473023212795626,-0.04658095983533844,-0.03352160420764032,0.04239843802554191,-0.13125614190882665,-0.09446529903653147,-0.02592224444862962,-0.18085857765311536,-0.07387441005165134,-0.023806028848174315,-0.018361732900806338,0.0225466399267846,0.09930319734434474,-0.020810721614253895,0.0059107238415266605,0.31915436664486796,0.037611895099304404,-0.26092861111235294,-0.09315944731811858,0.4094924589522577,0.08477989418184548,-0.026563304710785662,-0.153429461250491,0.25959175517413613,0.11707886773039335,-0.06285865086217579,-0.0036511794258317683,0.06285025023660548,0.055764127975904645,-0.0061658943795353215
59,0.11004131954043307,-0.1652532490990592,-0.13082648686956114,-0.28288323499429563,0.06791375875319354,-0.102431992503981,0.03160275250663436,0.1343460374627414,-0.10758950063104564,-0.04487003518054282,-0.13061099862505185,-0.17272551498705527,-0.23252835239829844,0.08732388222623695,0.28164005376193013,-0.04837589021674873,0.07961240782957174,0.00833442675246436,-0.1447196141741621,0.30387491462590854,0.012820701918824007,0.07890338027962578,-0.015971990800733304,-0.004599708582038679,-0.029513885630609124,-0.034431634362475164,-0.08429758893540856,0.10534766455365252,0.13201488380382514,-0.0357814879412824,0.21264254305712887,0.011000213498780963,0.1030596911259295,0.021860204633999243,-0.06706561470547917,-0.07758380849805702,0.011434499205281667,-0.14047745625562685,0.2409897555721161,0.2050133274831632,0.20397259764722428,0.00808532556093812,-0.04492049367199688,0.010084845386239882,0.02198425969768308,-0.10198663462140534,-0.06572100046850211,0.029304244190220298,-0.05128197191636569,-0.21126183688932926,-0.08808837255929465,0.20726870420277616,0.043507552984298634,-0.2641938974740241,-0.09058547999189205,0.02723114316761374,0.07711638565033588,-0.14723227657260687,-0.07534855424467467,0.02778305876222953,0.013046537715349651,-0.019746341557288133,-0.009422874336178097,0.002544938938383371
60,0.10847274587710348,-0.16417965864058467,0.037296765115265196,-0.1930605715188805,0.24152018449986315,-0.19684003855593815,-0.07990742723504266,-0.1407565183404445,0.0713227685984664,0.003961573941794091,0.0679524901302033,-0.3459070451367528,0.08274031585896921,0.06865095579733432,0.37493301084078234,0.05119403603918348,-0.06375448065286239,0.029922770055615607,0.1811723492077217,0.06903424059461569,-0.04492595407814638,0.035572955486843374,0.029600588052634852,-0.1266552414849818,-0.3135602670149711,-0.1435492946269732,0.04347906523699365,-0.10130720489478703,-0.2953015227430561,0.023012301618743264,0.007053765906455414,-0.05111351093623342,0.01607545948534589,0.046380622082489116,-0.04760437805424095,-0.04606281293820552,-0.046177355507563654,0.04624709131688112,-0.09887297506804531,-0.0859102392311214,-0.16226981401969995,0.18686663024267042,0.1970287526470197,-0.03405520219669941,0.057481336916167705,0.08422804706970635,0.006910074037696438,0.016748172817183903,0.11338466034325934,0.022675078738307902,0.17732638899540615,-0.1142836611640888,-0.0407586000001808,0.10139025677295394,0.10005435406766343,-0.06189610836806152,-0.0011094442747767233,0.0586033210409058,0.055292542188700514,-0.016650753672407183,-0.016342352254828288,0.009554665170848999,0.0014466501478082733,-0.003965078229882675
61,0.11770599029014875,-0.12133650556420596,0.17966916563544277,-0.1667113604169373,0.11516674714603159,-0.21315372237115207,-0.05700628092366215,-0.1842262970374953,0.15591781701310284,0.08480634750534637,0.15130839643156568,-0.16018024077637122,-0.08995622676175895,0.037496003506064045,0.0839359028432307,0.024579863853232554,-0.036617254289206896,-0.009340290559808707,0.014111286796242378,-0.3115022826556855,-0.016881507819729566,-0.11853771784148519,-0.10710175025914598,0.2496534903869454,-0.09931950220112676,-0.03462554456747427,0.025142576362426335,-0.028589831794453274,-0.024564923820346807,0.02743529765432759,-0.08308779297875273,0.07616325993703714,-0.05086755209891247,-0.030650711921196228,0.1076935953950927,0.12886147660064246,0.08709285858638782,0.0930242659435894,-0.002659811080970187,-0.036618260056513585,0.06824513506530616,-0.28722478430380455,-0.2616424403645822,0.17264988390415686,-0.21962663707051694,-0.00732860390907579,0.034875465325798674,-0.07936218052060363,-0.20420074632752108,0.13373391162871148,-0.3307658952021141,0.06967399435812247,0.025212706366692594,-0.039105473089096406,-0.13341265469264238,0.09985897129523592,-0.027448969067852255,-0.04720885195135528,-0.08184816676886209,0.014267207870882113,0.010994971410505065,-0.011062814626659395,-0.02078606760954524,0.0034430195611101673
62,0.12158801680291544,-0.07526307420007292,0.25437567905313946,-0.12193824560893979,-0.031781803621264086,-0.16377246906335238,-0.011628838982306116,-0.13180032009502843,0.15770963809880237,0.06928843399684378,0.06422549472390317,0.03928840837799014,-0.257484035516694,0.047700024663824364,-0.17094582029038624,-0.04536138100437081,0.015051331454165437,-0.019270730395001774,0.021113418625287626,-0.24678112882113024,0.03582511240496235,-0.061583821367613506,-0.10918479107557083,0.20444434853260085,0.03229180237123748,0.024229149016021374,-0.07778413865883724,0.11664127187831487,0.13463255808207364,-0.10595719402685291,0.13839721435590122,0.23640971310657663,-0.10588047119376395,0.041448371459974945,-0.00987245329595414,0.030730425584661936,0.09259428205356668,-0.045304067227262934,0.020874749209493004,-0.013419621962343281,0.013705302482611467,0.042652540421504834,0.0052688093130804775,-0.32737106008238903,0.3587382209329839,-0.08338384041867113,-0.08551055070981896,0.07750398832815987,0.16924992500938268,-0.1858867449292879,0.3252321733220409,-0.013037421761022877,-0.028892618274996756,0.01890594952375077,0.002712082310847205,0.020327462763669105,0.04387073434371199,0.03302883620629889,0.10944842661652357,-0.04535014910155034,0.006488287770173983,0.01682762092555018,0.03797170170992559,-0.007828797977054883
63,0.12420730007407407,-0.030177612809265068,0.2460761567018647,-0.08935451694426445,-0.14716085580696792,-0.07397999731940556,0.03852233868619557,-0.07676154739313432,0.0932769862847247,-0.017419915194695962,-0.11750550574289653,0.06549189550391463,-0.1741825444489472,0.09141063666862313,-0.09149165001988407,-0.021330758041956926,0.029301213580437836,0.05188126676745637,0.4085819238361806,0.044788142835735706,0.11998615269468127,0.380277166911132,-0.40262029138672994,-0.2614785584254108,0.3188547042279121,-0.0008293110090778211,-0.09161457846157503,-0.144834299280794,-0.07634851627441196,0.06677023671201021,0.005590930933712722,-0.17366193095056753,0.14658771997650252,-0.06399452829091505,-0.00015789488288214804,0.09466295884850545,-0.06377512194829596,-0.07378362348778514,0.010020531222574972,0.053137574714643566,-0.024318023925889123,-0.0071057130700882265,-0.003432994063451933,0.09231924906212877,-0.0900986191105536,0.035168028446580166,0.02672530558006543,-0.0006178952062062606,-0.009834929688272778,0.0052064521287474574,-0.02256084559536757,-0.03421856773346718,0.009611124362501479,-0.004091520272859639,0.023982105851383023,-0.0388266482336445,-0.009852358417521516,-0.015944742933411245,-0.030930563146935573,0.010363237671558806,-0.021393883259682358,-0.014902079526788153,-0.006584845955337398,0.01199742522152076
