,0,1,2,3,4,5,6,7,8,9,10,11,12,13,14,15,16,17,18,19,20,21,22,23,24,25,26,27,28,29,30,31,32,33,34,35,36,37,38,39,40,41,42,43,44,45,46,47,48,49,50,51,52,53,54,55,56,57,58,59,60,61,62,63
0,0.12881469735203238,-0.10209190804101112,0.04023299035882946,-0.14688636309688544,-0.056374364502732276,-0.03049056938879561,0.24793269837916676,-0.11522450319846689,-0.04726469959354557,0.018848699829640336,0.20800651774379986,0.10469819347111013,0.2800645918062581,-0.04065481145737669,-0.1427308081349657,0.05894719619965949,0.1033798806197242,-0.001899649971687614,-0.04461593547377536,-0.06094104700411836,-0.09898920459080379,-0.21286203535442308,0.029900625590598452,0.085315047752085,-0.061591325198117705,-0.10065297808862891,-0.10024027328197346,-0.29135944954558146,0.11522185593104632,0.33334300236650005,-0.29166242703725076,0.16345899011830217,0.07597577369065556,-0.2255684958556934,-0.0389289259116152,-0.20633825837273767,-0.10207833598061056,-0.006496494692040519,0.13578829037571752,-0.07456943849974601,-0.15984920756593068,0.020968234856265894,0.017752726197458258,0.05605275517376639,-0.18249070927114644,-0.036162722623338875,0.060418956280557275,-0.05413845681552543,0.05558794793430371,0.05094534423642939,0.014155905757507704,0.03484337065050213,-0.02440124471204263,-0.04675551648889517,0.003594511914322071,0.04116674201272788,0.0024208653099336056,0.04698060333649229,0.04252913987695643,-0.07916559257589374,-0.04328988780795033,-0.14861253151538328,-0.17256338892888182,0.06324219010670269
1,0.1343195122414187,-0.11725685162652608,0.015134233318932063,-0.09421373547885131,-0.040819219553113795,-0.009493913663091833,0.22690838283168252,-0.11668019338052645,-0.08695465404892211,0.013673354538638709,0.18596181369561698,0.10145274199046626,0.18476475926293426,-0.05763858877517351,-0.1041418320186066,0.0038735243021001146,0.059065327324782,-0.005154167634712509,-0.08263655678166151,0.07641948031943527,0.053239609737212576,-0.07014645542533154,0.047074046905228394,-0.027827908339029664,0.07520799768423825,-0.008604621817720901,0.010768519854031572,-0.05259038707938328,0.02907514455313573,0.15976427952192704,-0.057006633170262264,0.013702378251965151,0.08897329364615428,0.2467737383490642,0.043929112177818475,0.0861543673309691,-0.024723416479673542,-0.04601823435697592,-0.08036111239443619,-0.010103784572965504,0.08179679390588161,-0.039633075005743854,0.010681751392011447,-0.03229377501981352,0.15670440540292543,0.022002591432009937,-0.06996631504783356,0.06872110669943834,-0.05009445684670742,-0.0837818537806807,-0.03636149124475637,-0.03708342816431495,0.037765533846029375,0.04502387614599575,0.023508048131697525,-0.07601543613633553,-0.000203475077412076,-0.05678030845581939,-0.14442645638675167,0.23569129378050574,0.08979665802204656,0.4551238980109622,0.5127761384735638,-0.12098591424435472
2,0.13625120794384146,-0.12007041983110123,-0.006476791593356651,0.016034310529783546,-0.023784881681784165,-0.017486026050497865,0.2000478155754878,-0.08662251305350363,-0.09081591515734622,0.0604443026080381,0.09734378479186331,0.09526868597486035,0.12112412889653768,-0.07890866366261756,-0.07997258340883123,-0.03459675671238386,-0.02524847255878505,-0.03317576822620994,-0.13641131897090433,0.2499870777221072,0.16615775257981427,0.051024841695412534,0.04212442612315989,0.005215174929742376,0.08920798383581931,0.009839047206490033,0.04005269532157036,-0.04184664905126783,0.04663601291238559,-0.08852671937380711,-0.003001874555215528,-0.03199273549121813,0.05958891767089764,0.3173212892216926,-0.06208166700894335,0.14567808116348563,-0.035023686390563136,-0.06180317921718851,-0.12974209500967238,0.035358856731044046,0.23568874727854935,-0.0533762703353696,-0.011936112130408603,-0.20696823760611052,0.3380897892715827,-0.018043245539389293,-0.08466706331895454,0.0032992008395801575,-0.031050578727230885,-0.16992998531490028,-0.009297710640341333,-0.07978763729282479,0.007422928615306627,0.0743823165908064,0.011060059736470246,0.010537902085236535,0.055971785063725216,0.060172443072077364,0.08372546054114448,-0.11760582193628202,-0.05769508666140953,-0.36674828737808796,-0.3725843280278689,0.008832478142149752
3,0.1259523647483446,-0.11940100692528621,-0.049261868842867845,0.17574153662086822,-0.009436560975530195,-0.012422159774070199,0.16044578274915294,0.19901891843684572,0.039705320342087694,0.19428877390574498,-0.09305037310983302,-0.06530086778717868,0.0968209543564727,-0.2673273374788291,-0.1534955697668501,-0.0035392073583186637,-0.06236772416499445,0.06969232384468134,-0.032808348880584426,0.23513102605606367,0.20131265335302834,0.18626505334197108,-0.0249280483439327,0.046996939159710704,-0.22196147542529762,-0.20068030668356954,-0.12706409690624734,-0.18519986949172298,-0.029451944310338783,-0.4241959315483585,-0.07723421275869541,0.027795244816548603,0.06689786688850091,-0.02243024698595815,0.09520697383055352,0.1465295840294283,0.06986519044552772,-0.010832966650043425,0.16027784827779207,-0.00573203819396937,0.003212644550427343,-0.05708499571270157,0.13377576243573186,0.0812693258440688,-0.22163988117124184,-0.0008726727859881718,0.1802791211552752,-0.06830005041819569,0.0024823090704111823,0.13187524967480668,0.04947190840069893,0.1191416389798477,0.008385999810769517,0.008155285657438258,-0.07373127936591078,0.06814900339318498,-0.005588503362861366,-0.030663800824958377,-0.06114865329231764,-0.027612259712455678,0.008812529803735564,0.0566696105344475,0.09827823643162562,0.025490244247757206
4,0.11616545118877386,-0.11177296135766902,-0.0628985539272488,0.2700913384780308,-0.0206015582556349,-0.041314792061422315,0.14217547302423322,0.2621442515363838,0.12402152456945538,-0.22210197004341867,-0.30499261016618856,0.15743020120772444,0.10658293513437944,0.039494393260410786,-0.13150217829797475,0.009469141364219273,-0.21923420621605866,0.19547788647696074,0.0037922902475953264,0.13966230301172938,-0.09573640142944372,-0.12598598466959143,0.06377376102502959,0.0006069029676498937,0.01279426034476136,0.03463242045608414,0.0738884525440228,0.16355828600688416,0.011009667700130163,0.04248018813067812,-0.0232054047942621,0.14669315360642304,-0.011122575748713458,0.06420493164239888,-0.09023591270842399,0.049293129498610797,-0.06623446699055069,-0.008395996432852494,0.08690155257882189,-0.055220065013210834,-0.21267634254931383,0.24249782396886432,-0.3422182719559337,-0.08233775918958029,0.00045808916356986085,-0.06848090156044212,-0.16361227756692867,-0.02591173741902645,0.15333636197248496,-0.06239042777508783,-0.07624487883230689,0.016999317240328195,-0.023433652836611044,-0.09894817054983417,0.008394451252574346,0.05387552337671009,0.004195719616217515,0.07810795060846659,0.20101873293218117,0.026494245901938683,-0.007186562272522963,0.0850589330484043,0.015357830336610437,-0.09622412550089719
5,0.11634586957035897,-0.09605669605901297,-0.06447660421524859,0.35393364762575463,-0.03596617269005975,-0.0702896959852087,0.13933545141414716,-0.10175488025881563,-0.024820772815560256,-0.11866699364877842,-0.30469463347862796,0.030310706095829865,0.038727655661866756,0.017701087908165367,0.0014442093214311336,0.07407447824416447,-0.012146075065727624,0.20726381815215406,0.08615875546755183,-0.026975899535486063,-0.15649184496087157,-0.10833121069978979,0.001561695517425011,0.0006391586140264069,0.09577840061514653,0.10353991503219609,0.042943445629467704,0.06600243234056301,-0.002658587972157374,0.1025479806445866,-0.012294098702768,0.08780181305219491,-0.04669092481760012,-0.06889459639019299,0.08480029286923285,-0.09609805297257516,0.033514982126932866,0.034570426195128665,0.016859162565923187,0.029190163987248795,0.19217781377326854,-0.16576494490154936,0.18047643000903485,-0.003162105922429829,0.038673408090370856,0.09867704529060421,0.03067649968255138,0.10615032559313396,-0.14520743872317401,0.05306058459216777,0.060393177828605184,-0.11004192477972097,-0.020216546420972124,0.17503290369216126,0.027691379488902833,0.01654131300391696,0.018668819889208182,-0.13920092190368188,-0.35616973583631406,0.020747416866636594,-0.04717542529826201,-0.04591468541287795,-0.012270815122442102,0.44000723990263213
6,0.11999841018532481,-0.09817663857449542,-0.05654486459941099,0.35034026018455167,-0.030851265764447272,-0.07519038006054335,0.07194770015233498,-0.1758422247547717,-0.03425200857861793,-0.17097135159600552,-0.09899366083760652,0.007942859982199776,-0.0437404634215125,0.04748271632727946,0.09257355483324994,0.053322143696975716,0.09628189952353641,0.09897788501583045,0.00894376145107207,-0.12540650127689926,0.019654904540891582,-0.003352763327080399,-0.00034501609771835084,0.0469161071019076,-0.06879159235182283,-0.0403941810293533,-0.023863169088746954,-0.009057366085657131,-0.03792646800564391,0.11808590173964978,0.024125711627163274,-0.056902686023282266,-0.004059747574418064,-0.03915143547522453,0.053938930395153455,-0.08679288684071501,0.03501316867207255,0.013293998022378673,-0.05927138939645488,0.05401056439143881,0.15147933474624659,-0.18975579797802108,0.2012175932168708,0.08681364495343699,-0.0030428697655182496,0.01019513974122904,0.12837097221817229,-0.021448985256856172,-0.0225952204530973,0.06724326414460383,-0.008717155100843171,-0.004014674523548339,0.026173414103126992,-0.04768626061396819,-0.053828766580384414,-0.015669470253895857,-0.03532628562976992,0.023590312020008518,0.15971293317428814,-0.07861577701249543,0.12591260473155094,-0.07442286376755736,-0.01984401365248953,-0.6909584869735681
7,0.1244148126411449,-0.09376990263654844,-0.04551530681067749,0.2876141392778042,-0.008826684306240784,-0.061887800619090466,-0.01331453788165532,-0.20714964422015758,-0.03797201080645474,-0.2117782463781554,0.13661777579553908,0.03661774034427749,-0.11075940159581413,0.060991013210970585,0.13200571108163975,0.014053714679296121,0.162164799508546,-0.011629498331225334,-0.06182833903175338,-0.10533012938120984,0.20529966034964015,0.16704201741843921,-0.007642173913815754,0.054371962541077117,-0.2554135076260918,-0.15153558499533049,-0.05935249979984443,-0.04888918670074627,-0.027135647149328618,0.05613915518497935,0.06875980061457668,-0.14278366274798543,-0.0237449854572802,0.054025840572109324,-0.05133173739483625,-0.04284235313665152,-0.03298597121134306,0.0038601676235414705,-0.17038239866530555,0.024638789092639796,-0.07350017471113234,0.07475839602683447,-0.11034518876754491,0.10357495704581726,0.1251473283882838,-0.14905095646200098,-0.011612472158016938,-0.2077067557863563,0.3182134178185545,0.0545381574031681,-0.019959775422547357,0.2510801179297342,0.001333426587566553,-0.0020976316582913823,0.10812317824459552,-0.16730047745263735,0.04772804065301118,0.09257849395878766,0.027928506263265075,0.07083806618083725,-0.06356024902275323,0.05887307186493829,0.028122389028233802,0.3470638006715845
8,0.1249678998729618,-0.11682840715396428,0.025779352793467523,-0.19818786232623825,-0.08616459800086629,-0.01761420469155056,0.25671471778745425,0.04483811886428657,0.0019401724512062325,-0.12840333881722524,0.12053608598424595,0.12614324611614264,0.127889789388569,0.050331013294114726,-0.036875533172115185,0.022807797966407202,0.01380322869499168,-0.00892616418157021,0.09020615518549817,-0.2992635088850995,-0.18377113146553697,-0.1885407240715486,0.01355011270058211,0.054490182399523746,-0.14772810200567982,-0.05808148403490236,-0.11862722154977329,0.15148641337411736,-0.1616081018816294,-0.49226403984345574,0.16953809936139613,-0.1868014900348714,-0.14483149979529703,-0.2551514334378451,-0.17555236541143826,-0.059012191078586934,-0.03235543811152236,0.007255816569811698,-0.10302835671275787,0.014321821817306832,0.043101600610819066,-0.09360105222888782,0.0068726878040972425,-0.22075708003834224,0.08511815586052582,0.07196354243496135,-0.07238582635534685,0.04459878692129731,0.04903635528750397,-0.011701012977395682,-0.03329984352664942,0.015383052199130085,0.007360952756846504,-0.025882195213273812,-0.06255411174283988,0.018712898954516992,-0.007202319175580285,-0.004476220714720931,-0.024912350442849646,0.03071851502503839,0.009632677391776437,-0.0022595506095678952,0.02699510555328477,-0.004367756794433103
9,0.1320514786323869,-0.12837746998384905,0.01053453111863217,-0.1448856337187725,-0.05247826340224407,0.006138109568997324,0.19322273373395685,-0.021301132053688887,-0.026391251111194003,-0.10812887993891238,0.09077723807645571,0.11166031792475245,0.12220268866560663,0.024378087958780062,-0.07020659552465122,-0.034298825407732325,-0.028469045200538834,0.006476906878973086,-0.005180990044895126,-0.06530156128924133,0.09079046416204174,0.03478204138950736,-0.02532685574750036,-0.09906061474459231,0.17930093199842562,0.11465904788851672,0.06429813704113985,0.1933971617488078,-0.08148526193275975,0.11990176547058193,0.36717417407103087,-0.23551755179915365,0.0423414757079022,0.08073363591870306,0.21023745951851655,0.18238576723619093,0.11924673475692764,0.016794828755610516,0.018034724326432758,-0.025666737950838008,-0.16772683354704776,0.20903484837738925,-0.06899260584818684,0.28658574507713436,-0.14215179639133996,0.15419464886726733,0.1478210098513059,-0.08641923816165069,-0.2111936347866773,0.2700843846089908,0.12754862744060785,0.0810906776305981,-0.04095912169435348,0.08932007193869312,-0.034111866859831134,-0.027880513883033885,0.00010103785111495586,-0.008945057044522801,0.04872664481972925,-0.14446434338974307,0.029881641629410514,-0.12179688240973788,-0.015094721327813587,0.04395709510445922
10,0.13061364243556212,-0.13055329593351317,-0.024702715542310832,-0.022503539897933158,-0.006240095002515267,0.03712218415434421,0.08675068584592588,0.12601287854662008,-0.004185490988500171,0.38823756714077357,0.20779892452812992,-0.029704419366848846,-0.07400157966658338,-0.041920640247211614,0.049107483502792926,-0.05459783929695894,-0.14322747023419768,0.16580357829799502,0.12656224748216438,-0.006378349758912702,0.12646965522322562,0.04492296806189883,-0.020335535337436615,-0.031614559859100236,-0.13591936582527978,-0.08963418907530968,0.06358399803059876,0.31398768357201645,-0.11374059786261558,0.2928605145813798,0.1272178296297199,0.021888053626483592,-0.1270360724665895,0.019245086180595325,0.1281152837570099,-0.0785981708267982,0.04594766890432601,0.08285095645111747,0.03346604152173535,0.0223463028933895,0.09043195726775032,-0.14183247425239584,0.07667176803342209,-0.11195826418948523,-0.10851821709112952,-0.017046110257599643,-0.11071444524080751,0.04442808284811027,0.29119281944046993,0.1551576586336913,-0.11204148298886933,-0.28496600783337656,0.006912187274913436,-0.2377956386545981,0.07319783905224748,0.0019669168350903155,-0.05996928900981772,-0.040289906703139144,0.057308257003849006,0.04984661978681898,0.006070845451395607,-0.034443233440485166,-0.029273882840012228,0.06461118323542764
11,0.12753106601499659,-0.13027062751843393,-0.032079119285205904,0.023643137608190336,-0.018909352501796567,0.02674748481516165,0.05850373140100015,0.14163297400705094,0.0033813276390651514,0.29750072752320916,-0.1623221262822262,0.24483925562824801,-0.16536090624647226,0.04320314982007729,0.2450052091843953,0.036680020085935676,0.27098388709690785,-0.17546867959421922,-0.2442933160610563,0.2945753796079239,0.11621194106577049,0.021553788010080233,0.09995838441582587,-0.017349897097344663,0.1430799633833252,0.10898465789358483,-0.00736810369035572,0.04049717620783057,0.09299094969205969,0.08671345617400918,0.09086269926674037,-0.13122545830426163,-0.08950193303844307,-0.307429930375565,-0.1526132075936528,-0.18301676675026624,-0.04615324962306673,-0.03647085954602354,0.04021248816592514,-0.035932997533224535,-0.03708796907711007,0.002915368761145414,-0.053853787417136915,-0.08160082777575613,0.06847328934103093,0.2224025108305078,-0.01599514998595949,0.00032450556750977886,-0.042205202045045506,0.041092362203840466,-0.003347410981692277,0.19714633132890558,-0.043130566139656795,-0.09942723588072384,-0.08524023239762851,-0.021667557270801035,0.020050732483140012,0.017002172035594742,-0.12815371199644704,-0.0021637140580855335,-0.023908747914487598,0.09958594788231498,-0.029456036794173662,-0.057160241471834905
12,0.13103630458219379,-0.12903559905029582,-0.05262185750961878,0.161357712758561,-0.0026310698230473453,0.010735795288775107,0.025127058676224535,0.07556165228108769,0.014400226347700967,0.28869133934558255,-0.05219271723647528,-0.07010220971199665,0.002544255289394809,-0.10793768016802782,-0.049514176033496615,-0.05760483539443137,-0.17013353130560793,-0.1540813499391768,0.03641242137376671,-0.05873487718570013,-0.1296932476206067,0.02479535769667715,-0.08528123077233743,0.05359001951873714,0.10426311760408702,0.019326118519096658,-0.07222782764661527,-0.22218085166747145,0.0156032246589385,-0.05085070496428757,0.018596350767037702,-0.22837737253072332,-0.011539420358341095,-0.1697972527840823,-0.042962316933381255,-0.15836005389197383,0.04791433867555077,0.05699934429741659,-0.28859682967009637,0.010205722575927723,-0.12595420972867089,0.1909867172237666,-0.06331699169201076,0.33209969274564616,0.12832033514936297,-0.26180329081732595,-0.14637986996830743,0.14316659332274265,-0.11594232794313643,-0.06014557554737639,0.048740057627451136,-0.2685885527264514,0.033339714467406675,0.08373310605492358,0.16674265869822766,-0.1374624094449568,-0.08701232815701172,-0.05701384226478145,0.036317697667633,0.10475978486215196,0.013793255424598687,-0.07095938579748923,0.021338474570729876,-0.0500769998688573
13,0.1242948140361694,-0.1205134592349468,-0.06866911828396373,0.21415705300903787,0.009512346081512494,0.017272772301460553,-0.037887462120843804,0.12067414144700322,0.06574475904652649,0.3274082018421099,0.12226642079332306,-0.10845067556543572,-0.05164505652259421,-0.014286873899491438,0.00575842681216493,-0.05997435461860702,-0.16577563533992146,-0.12833452469435885,0.22418589914673165,-0.3008912857726056,-0.29621892699129304,-0.09114573709229784,-0.143767367962766,-0.043531237035426246,0.12613138754197228,0.07538041308755757,0.03971825026696099,-0.14998504487204395,0.006768753326469423,0.09036280742147275,0.025500636167648784,-0.010503128328700083,0.0812315957610422,0.15677842920675925,0.05177943285037444,0.12502870275129002,-0.050524350816055746,-0.02775159197857916,0.02971779383367848,-0.038694981966750044,0.03536136458415587,-0.015810237462100373,-0.06126598538787305,-0.16755756528482307,0.06453612523262026,0.1766646594257261,0.16535179704652775,-0.17840731064969464,0.07053150811371692,-0.1466405004045006,-0.032689650683352056,0.40215434441285036,-0.03451931997076048,-0.0201307682425471,-0.05664535819515834,-0.03135333351039976,0.09745097321003655,0.049120943147299465,-0.08790722303076566,-0.035262144855435426,0.008880734403366765,-0.004330357140485824,-0.015465455278766832,-0.03132425910450019
14,0.13161326632138814,-0.10689946240695823,-0.0469779088574293,0.23808710702216304,-0.004654433684065035,-0.0298195771324017,-0.035474825873558324,-0.1719148281392545,-0.029271902690990892,-0.032945971905388505,0.09322332913390619,-0.04056192723365619,-0.030787188637814333,0.04444803072963059,0.04890788462062323,-0.012265198047719389,0.09301649329892772,-0.2169018538875019,-0.07799805181907477,-0.07649112143045471,-0.02850328691494769,-0.0036144299342510955,-0.019759268656269854,-0.06139451013024173,0.1780827489544956,0.13117046682946348,0.01428824553485971,-0.0541836270212574,0.07280614871591717,-0.13819116291568878,0.008514534563769868,-0.027524833943273652,0.08147556434266477,-0.039141901597248924,-0.010576763436044061,0.13925742058204515,0.006768971169691371,-0.007058756405876116,0.16307230542386003,-0.015361821933968775,-0.0009324167377401105,-0.027064041005534178,0.14651615584370564,-0.17121573973482762,-0.23349852872613616,0.059832258859195644,-0.01605691942111509,0.11083659920106081,-0.17201353774707726,-0.05245150089156141,-0.017172820667568818,-0.21524844037671803,0.09262805090497539,-0.23585371134463998,0.014048830794810556,0.02545177092271596,-0.06954639567360317,0.13159969547632008,0.5106138669582853,0.02667266625988095,-0.051981425794409494,0.20041132363141706,0.0115741290565472,0.25615241932429794
15,0.13053326838258672,-0.1002894134637543,-0.047067552430581666,0.22108668019102948,0.01746303076814706,-0.02047329605318279,-0.09598680618595426,-0.11035434269224871,0.02050091317936803,-0.021033337731674442,0.3364884260864291,-0.04111561115530364,-0.13195807622791972,0.03543873307705031,0.10859346175133623,-0.007540715600976383,0.08258955510116422,0.02793084099249464,0.036541264162355314,-0.08593540907926318,0.11535276793068366,0.09729400126700519,-0.0312346948425586,-0.003391766728351342,-0.19061186841021668,-0.11069239403937274,-0.008584779455608524,0.04720550317167149,-0.04168239528512575,0.0032995805780633297,-0.03321351512627793,0.0655031537613506,-0.020334969101823894,0.004763211980075843,-0.1120288017360835,0.09062606230199648,-0.011601189537236387,-0.03514054508908574,0.15691600509895134,-0.11295610022331252,-0.20706902922683124,0.1889963912272306,-0.22727358306079476,-0.0626752289816499,-0.06039214712475474,0.07805764354752903,-0.14251981410298836,0.1613774251675727,-0.27454753008385935,-0.17817792632880358,0.009228538172500626,-0.1917362439733687,-0.06336346859300596,0.06666067503766682,-0.19502406302202122,0.2608964325103427,0.005445730843868351,-0.1565857511354595,-0.31459736354586,-0.06966260598723152,-0.011782417975425293,-0.08274131622293167,-0.00181734174136447,-0.10568291635400597
16,0.12073191975630707,-0.1252871882323681,0.00035380310546054484,-0.1952437813462722,-0.08589941848784131,0.031942459410950565,0.16908819462617034,0.2421540314644355,0.06203108827115854,0.00753357925114953,-0.059498381264625505,0.12340189097164844,-0.23413278376349722,0.0710371108178222,0.3614243812636034,0.06525828692306504,0.36670831135103793,0.009669131649877013,0.12147901312433432,-0.10740987383880271,-0.1409917790774122,-0.015568448734661733,-0.03703733258520628,-0.016841886148745766,-0.04281665413178094,-0.020650130678849132,-0.013469053671193498,-0.06401735321291924,-0.021882750738812753,-0.10449362452731553,-0.11579471871086625,0.19507177532879777,0.10973043015947577,0.12901699764559488,0.24197972163623044,0.05869486975768874,0.11908384723958373,0.009807262900111276,0.24027234296592365,0.043138576723678074,0.20025064649003907,0.06642492561842606,-0.12367274266630911,0.192603902465651,0.1021019587108683,-0.15650444686685555,-0.05045376465296378,0.009665348103701107,0.016038582740374147,-0.06961408753499579,0.02734697939414067,-0.06202059438715597,0.02604176855576331,0.11686950489235023,0.09907474293847242,0.020621554688863737,-0.010024596463464552,-0.007858191816394397,0.1396705035970419,-0.00958982449905206,0.02199346363682854,-0.0901321902586195,0.06305267195478374,0.029683799410794853
17,0.13376555963047862,-0.12779612862155793,0.004500029824736892,-0.16046543096082583,-0.06772928111263846,0.015344921173610977,0.13863567282602782,-0.10174600692732068,-0.10874146604626753,-0.08629826291372467,-0.02415369132883615,-0.07857258149665769,-0.099388079301029,0.017873026802957367,0.06454157804618299,-0.034131808546617834,-0.0688034403165283,0.038129956479327924,0.03567711880091112,-0.011213115171585589,0.013457673648512337,0.09943035778284982,-0.006248709695702317,-0.07752432474378176,0.11448872109812928,0.10484811097147821,0.06376156715879167,0.11203362210688964,-0.010159555133841841,-0.1345420325255935,-0.06387520253361297,0.1331471840669678,0.021093940085700612,0.04976095713753004,0.048751635117866655,-0.018712450571365447,0.04562322408225643,0.08754169047560181,-0.10140681892013903,0.061048161959633744,-0.08693468555477196,0.03714994338800681,0.08209132784339189,0.15676142175648705,-0.15801803886692473,-0.20926444550330714,0.11402337826367882,-0.005681135427759776,0.0018757988163829037,-0.24004925477778294,-0.04497390315484526,0.07968753740351565,0.01957513877994338,-0.25541228576229424,-0.020158576364401735,-0.04043338968183918,-0.006153915672526027,0.02193533575812074,-0.2832732306499016,0.13420865903676507,-0.16539929848197674,0.3447071131589913,-0.46821958446725387,-0.10162025336087056
18,0.13639330040146813,-0.13521609947990407,-0.009325451544192355,-0.10222610820669359,-0.025329835193000545,0.03689325013559793,0.024006654372397282,-0.08223541107010751,-0.08950048662330895,0.08283085447836802,-0.034590944048603606,-0.03574546557583118,-0.11622771055484579,0.049786958619318984,0.019216255584397518,-0.054634233435794426,-0.1628515039228573,-0.016524261112354444,-0.08117431708176714,0.039086322976123744,0.07586903601508439,0.04161844709251403,0.060442529264515404,-0.04495269418932593,-0.031993371120544706,0.036035324495524754,0.07845658729601153,0.21661016273543565,-0.0010900153967002071,0.03642847913682898,-0.014648608583325687,0.12101992064702043,-0.1182171048523482,-0.14745427833944147,-0.007826507216363167,-0.0808152331800408,-0.057558135140479985,0.046309732790472305,-0.09802332755740234,0.05708998492785565,-0.10701541393063099,-0.09682499018352897,0.08977214664690879,-0.10281119495999066,-0.21181196797631457,-0.19504489041223314,0.12204825245971318,-0.07647037960849293,-0.01156832145635163,-0.39956524419453476,0.0504838449387504,0.11474597896872185,0.0036750874757959864,0.4838819071232401,0.09272478530802529,0.06806257224038914,0.08620701661372522,0.029238169298727308,0.18561638867271613,-0.24760249735645878,0.03216526233875197,-0.02577198357752038,0.2322737140531655,0.023699512948807927
19,0.12640881088885542,-0.14309661602058926,-0.02640590371056496,-0.09026506788971088,0.0001140155039130553,0.06255973920200855,-0.12209569744419756,0.23522086880690454,0.1021380569241883,-0.09091821797344807,-0.11852334364447886,0.19898669950514614,-0.07585259659097665,0.160087022237848,-0.027478851282442318,-0.09161813899033225,-0.19506627463819232,-0.3090916848411813,-0.19219194280161067,-0.1503234694616567,-0.024467015453263963,-0.03246761838477977,0.015816799914762824,0.010016389548897137,-0.23827346228027052,-0.13918959801186465,-0.02297992201599597,0.056310357594878055,-0.019362454218707706,0.13691532494132314,-0.04379063671331129,0.09991336529874315,0.00228978916767413,0.27062940972030014,-0.4069751446139128,0.10691486597475941,-0.0810634965013301,-0.07588839045182105,0.012027668329100849,0.005300097174560564,0.06602470106941621,-0.129454430603409,0.20746023341377035,0.18251243069434087,-0.09605736881870484,0.001116597871107461,0.057380455057815125,0.042052833586096405,-0.16628388168606978,0.08179899231913836,0.03174226232638125,-0.05648812781499049,0.04013136932299519,-0.0756411980741784,0.038238386196785545,-0.1620922510526562,-0.0014431073539829973,-0.020211179850603084,-0.08887547398705366,-0.040363846544614,-0.005057747864399598,-0.038407370406773694,-0.005603198428193221,0.045142300252443895
20,0.134796275370418,-0.12890538750391323,-0.025184105435603097,-0.06310031696327528,0.025670758929214225,0.052958020346126775,-0.1768799948721794,-0.18495351323138073,-0.06865828757398247,0.05512734977717945,-0.10982850378510317,-0.059611608122276005,0.03713512920556548,0.02388742840258426,-0.09830621161843622,-0.032120417951057495,-0.0406757388903263,-0.16090236491694834,-0.1230060455090109,-0.0422867052701158,-0.07019938952204088,-0.09400608773883909,0.0414774764250031,0.008813372372650258,0.08882339139164744,0.07016543422590171,0.014009829735064164,0.02314742556484256,0.07880462702210297,-0.0076663548369994144,0.0845970279813478,-0.044229154235896156,0.01621761618432082,-0.011205820441856224,-0.08337677104858655,0.031793861068917295,0.04549127607137252,-0.07795404208622202,0.08928030560761493,0.07744299062308804,0.2149630111899353,-0.03131813186164989,-0.11886257752277696,0.18713600383802653,0.08503829454029514,-0.2867282100404013,0.022872227780401815,-0.09867089995038131,0.2632888686799734,0.1821456003897992,-0.1166806888051238,-0.01941441256199279,0.02856066993489257,0.016816175739443953,-0.3228160674031769,0.5429889309531615,-0.08276987482768756,-0.08666700711707134,-0.03233616275352172,-0.04201145743535464,0.00703937080603171,0.05066405568521354,0.04737316812926493,0.038689723176656254
21,0.12421721867151364,-0.11639010416929196,-0.04387161695033773,-0.01209155164638765,0.04194919411661603,0.06441946473491833,-0.19681262013684483,0.13432089680474318,0.05243323012911906,0.011084818061546667,-0.170178139521674,-0.3258983289340366,0.22374037640120314,-0.2760283174560045,-0.23947409929529798,0.13633000298457382,0.3894453793325595,-0.16095075348636528,-0.24592327108934797,-0.25710082281967606,0.06077981403832303,-0.003650021137476339,0.011378928003104756,-0.05153812290606899,-0.04505990939458124,-0.053980052493038555,0.011758480567141206,0.2743333837770249,-0.05975095913128057,0.02587061105163213,-0.05139399255226094,0.17058423530525246,-0.09165283922947227,0.06699073489571666,0.18553691656849475,-0.12971769564469338,0.012256029143975965,0.06338049582503454,-0.12912200410230612,0.04821827538950426,-0.05406841998473545,0.03926356498216115,-0.060572733894404374,-0.04509441521042654,0.08642972243082406,0.0914605965568732,-0.02158981972626928,-0.018085581549379757,-0.09494256723642676,-0.055751259380174084,-0.01852036141621063,0.01574054315740195,-0.03017244965287448,-0.04246761209197099,-0.004233052296545822,-0.042114141366561164,0.0159601711964184,0.03759894293985967,0.021530731166710115,0.04666370251641318,-0.009016854725255846,-0.04566199726908562,-0.035687695800826244,0.0021507608680310653
22,0.13810716391210223,-0.10802115284274331,-0.02877085609532472,0.04923348539898968,0.045213715068714765,0.02263863615963449,-0.1893764801135207,-0.14107550209495595,-0.009206969773254432,0.004561372411454254,0.12322170173537288,0.0060681605475648714,0.06354316261783746,0.004792363142176029,-0.025858843379951063,0.01128370785411914,0.10782822535033379,-0.06905328403373921,0.016502968442965005,0.028638383297738823,-0.022744870120171692,-0.006439733393499514,-0.02798773531854264,-0.1023828923734835,0.2322416801749372,0.1668073543797154,0.10811777175270534,0.07619655490366545,0.06497618817483436,-0.2564830299305913,-0.06123696342698498,0.2192336019248611,0.02936302134806491,-0.04074206312962131,-0.1329555601823828,0.10839531192119387,-0.06989711331778847,-0.054870067050122345,0.13216022852998344,-0.016572760310662005,-0.059802111878185835,-0.004019114666101064,-0.03732383959539129,-0.07998890558818342,-0.13871322221817534,-0.05638472392393771,-0.09185310973400271,0.01205818210763554,0.31885863003393056,0.3358649027262811,0.08767005301752369,-0.07459812455496556,0.014207874397731413,0.18115495757665787,0.29328133290202396,-0.30768944214472416,0.03201471231139263,-0.07153320431751495,-0.20497314779407289,-0.05590950689873243,0.08056864123878826,-0.08321234211791288,-0.004398646279928351,-0.17604375126510274
23,0.12415182211846501,-0.09838765378168263,-0.035905152099575,0.08865169428587853,0.045578357409153676,0.002029882179125376,-0.1906857755732613,0.21106883761169512,0.14341733032098217,-0.24695094250354177,0.4069439750335612,-0.17722487345422397,-0.09565060189787299,0.06846084930852575,0.019244461482667664,-0.06632229328232536,-0.011730595318086026,-0.10227450272777874,0.01256175936929338,0.4592701254823306,-0.16052694185980948,-0.38563335806079563,0.22887179228992052,0.10312220321920346,0.010815500348094725,-0.009891865041923652,-0.027937967198761293,0.06625672224431106,-0.02402615239619866,-0.05243195624970613,-0.0031969871691150398,-0.006410497264924986,-0.007204303129953973,-0.016778337106466312,0.19805974695660455,-0.07976810340849484,0.05835494842190464,0.06680705313328289,-0.12851079406798482,0.07726865963782162,0.008622129613758116,-0.04127169970764195,0.09559427092334252,0.0931548045070053,0.011328914030014126,-0.0021596941445661474,0.0800535011729073,-0.037090935035434106,-0.035921561665259456,0.005322723853310424,-0.0003254806247708353,0.05556449263267279,-0.001977814847774019,-0.03084566106451722,-0.012193142618426085,0.005548089024413441,-0.008183510723188141,-0.015858408972254635,-0.017755749883033092,0.05450514172621815,0.0037230017581073305,-0.06316461499845398,0.011549194474434303,0.024028289443710937
24,0.1194466082561369,-0.11652097224736609,-0.002838053774300765,-0.16909021813316644,-0.05492830333921798,0.018226954845848308,0.135876770424362,0.24299514230954758,0.0304971554978903,-0.2884593292971836,-0.04558111748652263,-0.5442186538334044,-0.11957361163331129,-0.18301667566204272,0.02424343021585229,0.011866346181004794,0.10306835714771628,0.09121964691463626,0.11526030947644719,0.05469541311325582,0.008941846398972088,0.12797194092682213,-0.029602797104137817,0.046396690380501385,0.06835707161579932,0.05091476340079415,0.027059765465914175,-0.18782688010085594,0.06033848183355184,0.23155242454229819,0.15147650513049848,-0.22605628381065743,0.013674439181474929,-0.04595646140459696,-0.29911309375741946,0.08096745671732228,-0.10585491455366942,-0.12568681372658858,0.09945358254534345,-0.03566950368202082,0.03519337618463783,-0.09520366998350765,0.019528931449524205,-0.09581953550497035,-0.04248686137472573,-0.00188611388156891,-0.07823658649886646,0.05531097065016283,0.07099033316820229,0.019700267829926885,0.025865499782128303,-0.04563136427275358,0.00941843502970912,0.12361794426145029,0.031138260323660585,0.008413586610477676,0.006733985596076662,0.026167786417234534,-0.008876962810064296,-0.03948478126723408,-0.007415744614685957,0.07890252996385645,-0.04305848760408654,-0.007987369008305045
25,0.13277325024605213,-0.12558123611681862,0.0049301395199322275,-0.1632574555253114,-0.045783827047022975,0.032657182406328485,0.06922125715053559,-0.10477641222835903,-0.1370686922398063,-0.12374975485630091,-0.09919831259323432,-0.1603234784044177,-0.15137831753636416,0.033679458874048884,0.08232118185778223,-0.04214587143801898,-0.1252061165879374,0.058741031841589186,0.051577120957116696,0.032388799019758135,0.03805918300735889,0.1688927938033667,-0.032340221138307076,-0.04963195885710206,0.11331388341140404,0.08494561120313102,0.07351699179920362,-0.05210852249158758,0.07120805512727021,-0.09573731947305458,-0.1919290448010217,0.15701183216075948,0.007097900953110525,-0.01104938181772222,-0.06291584607173048,-0.07576768390616062,-0.02871227930097438,0.049834489431474845,-0.16456516503589128,-0.021100178495480737,-0.10004833222194238,0.08853201397365795,0.0264763681502697,-0.04286448195793045,0.06062466633137142,0.09860841302015713,0.07448094903876998,-0.049471040488181,-0.047622858205524504,0.06971394322155156,-0.1372753679799002,0.06693487192584055,-0.014106392044160476,-0.39007526234277484,-0.11162246534386802,-0.019021010691869955,-0.0506728737229229,-0.08972441477900875,-0.001311640671821851,0.09557118186642133,0.13124090074417408,-0.44546306550830883,0.3745265259052632,0.06869321850180593
26,0.13354626998351368,-0.1355646379561716,-0.007973143338204222,-0.13970346694577046,-0.020244577993695417,0.05732001608336014,-0.053475428563778224,-0.07744231684781595,-0.08027803985291507,-0.03318287435643948,-0.08878491307598313,-0.07343410254557503,-0.17235315104397686,0.08303089994939145,0.05584510853737776,-0.07284217042439911,-0.218705794874902,-0.03202810217667204,0.012669466948408245,0.0014458878179197665,-0.04502758868650894,0.0465529259258089,-0.02643713339218456,0.049540220865889495,-0.11152192755981477,-0.09574386888184981,-0.032994967964969285,-0.12454008344290468,0.02289953238136501,-0.04520314399180268,-0.20607142549816718,0.10254167616950247,-0.021075880242248567,0.03414981771486229,0.22991441899115347,-0.09703296255955665,-0.03066918032971066,0.05703770788602246,-0.1941110495342183,-0.04838926901322592,-0.08185671472075351,0.03387110158204257,-0.07378851990185421,-0.13142305468229631,0.2153319409012621,0.27332603852865156,-0.09319025838316881,0.048269196802682476,-0.026665816613198473,0.3832917192797721,0.10869717783480659,-0.10800378278191011,-0.06293655644174777,0.15398360299897373,-0.08882420502216805,0.01948147786092591,0.0596284693539349,0.07888082596595629,0.10572167745139499,-0.2891702535664732,-0.034818278047321724,0.3379949559226938,-0.13351449471133214,-0.006092801722612701
27,0.1313586472764679,-0.1356520993486125,-0.01221629515780983,-0.1429835906178423,0.004652390268171152,0.06148013754444835,-0.1541456204780831,-0.19511026148278557,-0.08623336968278605,-0.00781192205529843,-0.1487773511858015,-0.0299748677101374,-0.07912144115510598,0.07246240483666727,-0.04285751674877064,-0.04671480089584712,-0.18793335808515407,-0.003918110686748308,-0.07495677005227785,0.02778461509847971,0.007440586457969883,-0.028651646508642728,0.031301687152601496,0.06186937679043432,-0.13936690552979333,-0.08041256107614242,-0.0497059175576777,-0.040012871541080144,-0.02260780832681411,0.039368902204195366,0.05305300338785704,-0.07456313923069038,0.01225331808040312,-0.0740740053347042,0.1462965202758541,0.04052685350964533,0.03858607770625316,-0.04502443679309315,0.2633224260832909,-0.040095719066659194,0.03032988485986894,-0.0022096506748595264,-0.06649291840691139,-0.09335431462881462,-0.03260993960383199,0.14376229973664525,-0.038508754656565454,0.026592663275305954,-0.035589725898048916,-0.021457110744891733,0.08991944041891309,0.09921925280565594,-0.06668786499289917,0.20437447748357146,0.10523003424781673,-0.009375890676914717,-0.04835327972322105,0.04700362565947723,0.07469808543210069,0.6871571972574222,-0.005890792211052471,-0.1421871350768649,-0.13318896041036887,-0.07608764225609022
28,0.1281022533101768,-0.1283386468414785,-0.013688811698971593,-0.14998147724227,0.03873271696311682,0.06671148417964205,-0.25930363512052085,-0.20352503681434625,-0.05089572442722248,-0.016851238893250308,-0.1935866538866872,-0.009433621653162907,0.038676332162957246,0.012626975481526456,-0.08989388124910232,0.023252714824736898,-0.05610649232766939,0.10156767869708135,-0.00964085629943534,0.075060094955744,-0.023265494202213483,-0.11879203823552542,0.06587471457583705,0.09059786962805694,-0.11950122946427585,-0.06633437892191163,-0.0957265873236508,-0.10224764262657847,-0.024183724279510647,0.016571191099831184,0.1304486202403683,-0.2149842031859099,0.0845643199512824,-0.07166053172480935,0.17146861814592113,0.04072285594741094,0.10744933530632468,-0.004414461022786701,0.24687199406134872,-0.02413682162440549,0.11166428448791717,0.06488230000679929,-0.0753747531443356,-0.020631790781749933,0.013208459251838778,-0.0041294464019989985,-0.09142350931602806,0.043240773002026583,0.012382558271026132,-0.2721655898819324,-0.10575148344512378,-0.009690673176185279,0.057449259595738156,-0.29253266754673035,0.15443227985694633,-0.2621838066746392,0.05334183553407358,-0.03146940612077273,-0.1463724048504841,-0.4234740188562917,0.009433831667574126,0.006691707682166023,0.0945250890022476,0.007121086284063272
29,0.12544707722682055,-0.12129860703343052,-0.017981083884961564,-0.12282826006524883,0.055860677170416165,0.0825342749807053,-0.295211130836449,0.005464709764155836,0.059230145933256026,0.08191016419866039,-0.18031454674766037,0.24577044070559054,0.05444553181287266,-0.005482180484103261,0.09556236322926283,0.13650232323313166,0.2675168291396886,0.24867066339964963,0.16728184711181338,0.06063584040505893,-0.06849120527578245,-0.09099654050794423,-0.014230978402619165,0.07117089134183324,0.01928636048509577,-0.04619006092578032,-0.010226418478039453,-0.1753710337900469,-0.041414315950239214,0.029219609777813807,0.03172124461179299,-0.16125711710283305,0.05533535752127356,0.19708925561419213,-0.015686744665185683,0.19212533212404348,-0.0760340033418597,0.05803072955696603,-0.3870043882881298,-0.019798175107426846,-0.24482544816958465,-0.011741718572124991,0.1371696678986893,-0.20536801574512575,-0.2315953826850628,-0.0701346034497353,0.07727621737550172,-0.033784842792509914,0.049797639922886903,0.0010166601728243685,0.026027023122092246,-0.11602284674762149,-0.017920008736182186,0.030258660917706258,-0.07394753071410395,0.13607161527802075,-0.018159324608787074,-0.022996289247883106,-0.0024626320999244222,0.08405325224936297,-0.010477598690256756,-0.03510256284995697,-0.02132005359346284,0.014422909573738346
30,0.131518226623908,-0.10459578443339594,-0.010860615251361871,-0.07049418219121778,0.07530402924282331,0.05682702108596332,-0.26891079693346065,-0.09399126286862593,0.02796506810730643,0.13900405858543785,0.12735588467149053,0.02726452508161987,0.1229216084113745,-0.07559792092082056,-0.035685476491428746,0.05716706502920876,0.03663678073556855,0.4013072342953695,0.2915959719938578,0.08878150624725917,0.03783301107286907,0.025774099459836913,-0.03267418970159586,-0.029600275871893816,0.007907837719516891,0.057157387806911715,0.03922412680657031,0.10126446665876816,-0.08554167163112253,-0.05785829925162689,-0.03748956895892741,0.12970099609956598,-0.08190652133284636,-0.021126068622402447,-0.35258696896505165,-0.13006111744481247,-0.02923678526787693,-0.06668972424300379,0.10845453252029229,0.00039755856360534914,0.09834845999116315,-0.00974161656311253,0.02777857140672834,0.3018801076419498,0.23834593605368676,0.07051177144604479,0.02820936078245849,0.0077415571344834205,-0.2280405169229012,0.016947743707716317,0.047085034024067975,0.16338208601748036,0.02386531074705754,0.010084378006933487,-0.04436715130359929,-0.05230150219106955,0.0014065986360876186,0.1400329303828238,0.238410860319398,0.013116414905370882,-0.03056042490504072,0.11580662237636323,-0.02387677512498479,0.05445844785529952
31,0.1224956574677014,-0.10220849656152488,-0.014876691896840056,-0.03968421161833551,0.053553539115332366,0.02754989034750127,-0.2473860153171214,0.30390156611142444,0.21043467713203953,-0.2851697248112615,0.15102250141552206,0.2971553201172012,0.1749209239418892,0.09492023264954194,-0.10243329320500526,-0.022592584538386664,-0.12536642454898939,-0.009639924856924137,0.05476289182652437,-0.13425133801773348,0.24921208060395023,0.3552756816362166,-0.16013424589369174,-0.07132759602701841,0.1697988310738287,0.0947482412897282,0.023546540610954996,-0.15665331169035088,0.10067314136923472,0.0452886192078599,-0.05948066309917675,-0.039945666120336634,0.020633446313020623,-0.21191296968121287,0.20563198264372948,-0.16323510185073278,0.05836002554276293,0.032273272130866504,0.025751648860576293,0.011706393851127261,0.13495312952313215,-0.07149062188190888,0.06331118769540534,-0.10878542537123422,0.07518892823101986,-0.02871671997898487,0.011839460826470694,0.020366375717431454,0.05197561958098071,-0.10614913454601455,-0.030881530322028054,-0.022225694508264393,0.008424684927836434,0.024115036562349326,-0.025195925566403207,0.07657978206542115,-0.006033271151590713,-0.020087265394037435,-0.045950182378089885,0.02964089114585497,-0.0075153554837417355,0.018292497372616047,-0.0018632484707952202,-0.0054137491283418465
32,0.11689342055115495,0.13132386199750887,-0.21807565546243213,-0.08424879485166287,0.2256749013410106,-0.1216206304922592,0.040721618704545645,-0.07792157622804216,0.0677336849756752,-0.05662650802217222,-0.008491351228179135,0.09373796692023015,0.020985923223071745,-0.23673307134902402,0.08005615099107283,-0.18488998465639692,0.022686491146733424,-0.0690188016743773,0.042788640364244276,0.07640074572767475,-0.06515610445242867,0.017541059208355497,-0.21035475955199964,0.16401956822642513,-0.17362972145111982,0.25841547029564993,-0.07705642494990417,0.09132960371213197,0.07654068900907499,0.03361926560245185,-0.09278004691967301,-0.03899264451977773,-0.06784504391015111,0.03771818960902373,0.028499988869590778,-0.0022056559403442477,-0.03621600249926951,-0.008951582398531673,-0.029418804512038044,0.04325309516327523,0.1137191685636417,0.017742044866022752,-0.07686098649246291,-0.025941406114632373,-0.15510705313793216,-0.03699434620250027,-0.07710463226874671,-0.03748412101681787,-0.0628061562442056,-0.025694275093010047,-0.16166756780149782,0.044621883997401496,-0.22949339902549168,0.07331815437916443,-0.17364557488304655,-0.17621871541819717,-0.2520178187148309,-0.028945284956983494,0.019905986464050895,-0.018621350013482585,0.45198478463068004,0.06350375332832532,-0.12271741913833681,0.0790551841815995
33,0.12247179675889339,0.14760591731252637,-0.15025307779783983,-0.041889135926140554,0.20014694843128075,0.06914565272101024,0.07443330287570495,-0.08764378321451843,0.1230939404583857,-0.04111621511496067,-0.07578128754911118,-0.0015630677932246114,0.13582555695734028,-0.08900585788213283,0.15602795309655615,-0.270315366542605,0.012004927478206699,-0.08838666863692969,0.07791067771848309,0.04869219154709853,0.016318616737511584,-0.004150887957523304,-0.0717415572181749,0.0022382130766892532,-0.0993545226233437,0.20837696644470136,-0.22679256175382687,0.0011091652813527263,-0.09375189454882102,0.101565202449056,-0.018281113170033232,0.08229847043973451,-0.27678204926574157,-0.08111232876438985,0.10112934071091728,0.19373921144873363,-0.12978828760712396,-0.11790645069545061,0.033697368502793264,0.13286767433776397,-0.1311345303113189,-0.016420272731050622,-0.007611762273028649,-0.01113048258968953,0.16479848394284585,-0.01038687840277111,0.14022151226323656,0.047008890463573885,0.07738685061241724,-0.02886963629836941,0.32128163001913607,-0.0671915628246697,0.36497086485352115,-0.1270961197236279,0.0049770365982062395,0.06277708709849264,0.13482614904958065,0.011229859218882629,-0.02838119875532477,0.024555648267417962,-0.19235204248737756,-0.052221380929981326,0.07195763738833806,-0.04362838110270469
34,0.11464882334783723,0.14489071276161813,-0.06929204510456098,0.013248859896488167,0.18265516617018834,0.258706450055112,0.08759953104210498,-0.058017526923641705,0.21080502980740815,0.04367203091212119,-0.022271895510957016,-0.14730638533453247,0.2933709896747395,0.1300464373081315,0.3412092365206192,-0.04910648936452667,-0.11119763223455754,0.03476835452700067,-0.061404567928968395,-0.1093557755545276,0.0467083444266527,0.13823720213157142,0.3430597829331703,0.24954989980074238,0.2502521150435547,-0.16548465954048072,-0.0912950228980356,-0.0031476117466423398,-0.210826096831481,-0.0009806501677572556,-0.030452161011758752,0.08113850736494503,0.1354262457789624,-0.016668910709224244,-0.08035022636549907,-0.028862268494683437,0.13594840465648517,-0.10513229164376563,-0.09605025144573277,0.051509360335842524,0.15068669560589604,0.08957046852874277,-0.04547354601208665,-0.038852940683527626,-0.15057916230508986,0.029090891987286663,-0.07689899815411719,-0.06673129620420584,-0.04767348420085171,0.024258363304650116,-0.03139674257125085,0.024208005421327616,-0.15731559019412428,0.0033630242940852484,0.07972381054605976,0.036438218923488364,0.05531856441950389,0.028704464102422878,-0.0140272346663039,-0.005146249415571916,0.032460919848867356,0.024462158771480738,0.0028836678258420817,0.012867159102969063
35,0.11988862972926384,0.13541566429926624,0.041607335324781745,0.03634829743992732,0.15080126425590262,0.33958830578374405,0.08717543174652982,-0.06260927381481202,0.05418540162530571,-0.043963053993676636,-0.0060178905804421316,0.008537084387675394,0.13619228798533445,-0.06452150770951548,0.15689813073460676,0.2590230528551514,-0.07629779740508297,-0.13865572770147783,0.1048784076425316,0.051357611358442,-0.151814260503997,0.13757384500938918,0.1262345080086219,-0.1128649993997525,-0.08168772977758863,-0.08754263681735253,0.14146218160349688,0.14260053056488198,0.19931029462419286,-0.05169794221461489,-0.11438517524379511,-0.2881547452532679,-0.002094955591491504,0.16757739811376177,0.04675066116691429,-0.13688169528232713,-0.11309154404868921,0.11540491188004835,0.23451263956073307,-0.06272146505039483,-0.2578513385152929,-0.10031915697101654,0.06892191918543268,0.015812685841697108,0.15445185834430564,-0.02046888799711602,0.16370580660115192,0.1378479092583418,0.037881462954233086,0.01885651236802631,-0.2182796779407564,0.01998807831144299,0.1152964997934484,0.09213076041289389,-0.011572986389126988,-0.03122382054485645,-0.06468765820011133,-0.16024073493393337,0.04370875068339648,-0.006134422085767234,0.008036654522411701,-0.0016225835025344137,-0.04914362096762352,0.005926318104088874
36,0.12376911946620328,0.13511804591041382,0.1270748872120226,0.05113346718365423,0.11933125210744011,0.25402767194778475,0.03913867790504041,0.00801937781049276,-0.10962444797899562,-0.07914093837891839,0.0016285803326427319,0.029937660075402227,0.008914383662523248,-0.11925097566157623,0.09260640926299298,0.2817533762259125,-0.10261529552723385,-0.139722022672138,0.03818745697410074,0.05263762857553214,0.039874725221670335,-0.14983163754593845,-0.17089868052324816,-0.1499088539342059,-0.0446940563381484,-0.07161184957637182,0.25967904639949746,-0.027230148902887635,-0.039192075103339455,0.02576415145563475,-0.0802846853944395,-0.029287360390490534,-0.15243983326928773,-0.1447535777565266,0.01678898037982335,0.1898363295959976,0.06514332428149847,0.07841518651002391,-0.044035987335584725,-0.13946392302665234,0.15207804965979915,0.06181444865257954,0.10494613515123766,0.08552946055045077,-0.041109810450166845,-0.0357371168733385,-0.19999667833421964,-0.07758499949404613,0.05483859270881754,-0.06210407959005623,0.2387798033807556,-0.04529612878759169,-0.17631661744688232,-0.06746256383149446,-0.12549143532364632,0.012480496014416503,0.03760281197462023,0.44830513961489454,-0.12118807391832806,0.0011863815437578584,0.045812101873025486,-0.042655480920934075,0.07715923166250746,-0.008339042069642161
37,0.1263557599002275,0.11950396253121144,0.1829847346527065,0.03340938449746402,0.1529374763112789,0.08867660748925443,-0.01266392671575124,0.06055333246481009,-0.2276641527021453,-0.0956467955743785,-0.029605129340014052,0.051976674819857814,-0.032930910877729015,-0.14809923425501748,0.06709550584224591,0.07804209342306484,-0.0477179926148952,-0.11299350642130876,0.0937089339110118,0.02367855887588008,0.18143011258418884,-0.19759364145778888,-0.21518491458398173,0.04496839637961856,0.08208421081024465,-0.17191105628830677,0.04562370103136593,-0.05200045450648423,-0.10547091716763785,0.04220858865515563,0.103190702935175,0.17069228178675103,0.0026859734117749695,-0.14924741760930899,-0.032928483074844805,0.10185181620333075,-0.08523240238264099,0.0504855996503557,-0.09170885806923998,-0.059635563803103114,0.11106479585738098,-0.027204740325512802,-0.11426908324490895,-0.017169054041492382,-0.003263651852019045,0.029160339446881123,-0.025961512605781917,-0.1805444274909576,-0.11324680147080746,0.0031922360024254706,-0.06392425694614137,0.08680714025479648,0.0752492763658246,-0.02378087536511428,0.13702230534553536,0.006759392173821738,-0.03848719550914083,-0.5883239367644739,0.16725653881346167,0.003604600398151761,-0.07865764068006467,0.09002931692269468,-0.08924121342653424,-0.005483815324667414
38,0.12310025468134772,0.08473991977524063,0.20043356605103502,0.041983799701591266,0.22041781026059104,-0.11098580387321869,-0.031445667048643905,0.1073585430564128,-0.31118899200589945,-0.025996505046487997,-0.052726499825000814,-0.010249448438682366,0.050186945760738774,0.051397944292645936,0.06361570688060016,-0.10134179575144957,0.011041295458702182,-0.050603982712030676,0.0652355775595101,0.04379935164339715,0.033668351883122324,-0.03301305910982415,-0.23530463083578174,0.05469949452698705,0.1617730659827901,-0.19502119335101506,-0.27702234717930263,0.1051337700973167,-0.03066577185999024,-0.003650190507820422,0.20868537937932058,0.10677909529007637,0.3458872743731432,0.0908028126885833,-0.031667835476372364,-0.18305845571107324,-0.08457952669993912,0.114674190306965,0.10679420747967819,0.24969048427502036,-0.16948590202427077,-0.006973265292776566,0.08983191134364805,-0.006648912609644193,0.03671997827727791,0.01387124605300763,-0.04076348705997063,0.2590128467588041,0.10581494817557606,-0.03441128422258588,0.033537000903968765,0.04421351619722162,-0.0031191010310755163,0.04879125043785018,-0.12290319572115276,0.012259344995174323,-0.027277593794011065,0.23625654106171678,-0.06095555375204398,-0.017658669766341478,0.05872574290770265,-0.04766673472127228,0.04156934397229037,0.017865137565302523
39,0.12192133616607347,0.049370837072423235,0.18091524071522144,0.030392478264096395,0.22339424854747336,-0.15930345647374886,-0.046207437530313686,0.16544255677605585,-0.2738655584672974,0.03163893355300978,0.06038380719820503,-0.10563830122398457,0.13424657224480982,0.26301392269270535,0.05400034936195524,-0.090648731180648,0.059611231619487386,0.21307789007611583,-0.3074097657938768,0.06315444015471822,-0.28835355314831146,0.14490315670319157,-0.143702245941767,-0.19676723434716678,-0.007003171885216708,-0.005570356444991741,-0.09030830961810181,0.02321284811807478,-0.13179085999292361,-0.015970519697864775,-0.1722257126148916,-0.20727429913922818,-0.22126203919610898,0.06280192047562078,0.047507141558181504,-0.02361941219688027,-0.12038131994699501,-0.09973248400527221,0.02748702651521301,-0.21662792549128596,0.1428980756529005,0.09242858540018002,-0.022052030148104085,-0.056452989574004755,-0.046739764073135084,-0.14664493308335275,0.1319344948343255,-0.06292751375286595,-0.08751001513172874,0.06542650914132062,-0.009412063500700077,-0.012918892472019633,-0.08850352001443518,-0.03589598317974313,0.11362177593615104,0.028615213335996148,0.04120782605920369,-0.037886933250491195,0.001835263479319088,-0.005028693041971667,-0.027680974603043425,0.019907971329776175,0.0028606295925387437,-0.015085352560423388
40,0.11496761803599707,0.14142336158368005,-0.24766399175692183,-0.08700382992320659,0.1850283951395925,-0.1577403083087471,0.03351374889184877,-0.056212911355935244,0.024520036694238665,-0.04521648738077114,-0.006149877248087291,0.07865734243702804,-0.06835519493726415,-0.18887395981903074,-0.01852923605257824,-0.10217734522920494,0.02540094520502886,-0.05264347751215491,0.032472422336770716,0.01992404505070825,-0.06762228965074175,-0.01961057048727074,-0.14648531769095652,0.07051398806497872,-0.09410226500581094,0.06394112676713629,0.1562577481837227,0.06617918444221663,0.08663431924998245,-0.04097036911822832,0.008304067575973711,-0.07341595833257303,0.1625390318661124,0.09571168703186805,-0.06011312511039062,-0.20862593247557873,0.1507169891380593,0.04515133317561838,-0.030200580849567747,-0.10714808147470452,0.09289032616456827,0.08194333326556115,0.08092151808800417,-0.017535542195642337,-0.121175117244936,0.049129879334610466,-0.08710825868566663,0.012733228820777896,-0.03265043722052272,0.09331579151821337,-0.16894007546131606,0.048746514565436785,-0.12485391147765329,0.03362499524391713,0.16366310650735202,0.12606286341071565,0.17265918848569178,0.05714946148955426,0.001437451895459324,-0.0019231018460864613,-0.5829921940317749,-0.06122524927528663,0.15839623377813908,-0.11417698763577283
41,0.11581370013142833,0.15454975886446337,-0.21964117452035634,-0.05255955115609872,0.14848494122374237,-0.017878393892970395,0.05926560653436995,0.0410020031122691,0.13083355943385613,0.07480332140761363,0.005439151523917814,-0.1101286995975667,-0.043144061876236,0.20693031021507818,-0.013629911915126074,-0.09464912656839167,0.01976453122659113,0.2306954327818168,-0.29190824964188117,-0.12901950660031572,0.1918744731868625,-0.22496936612422022,-0.07309271540157314,-0.06852267929033473,0.0055540113462924715,0.0500622199877913,0.1784246284982771,-0.13772675573808113,-0.040126358144640814,-0.06920605644559916,0.0055833398819016555,0.0038132629955541595,0.12970735390749116,-0.15139813280944361,0.009646806169312266,0.25645569196464507,-0.12903318389642043,0.23038681648268908,0.04268850225740317,0.0145378525203716,-0.20913265217457014,-0.2686931472960533,0.009133275824912468,0.17012880848068435,0.22606239985144638,0.033870253321641605,0.06483242867104683,0.07216679567797848,0.047156555428328154,-0.03954047018096496,-0.16561064253582172,-0.058692359845574596,-0.24841373700003447,0.006417141525342562,0.03319744990879123,-0.008401590794514469,0.0044476135241416324,0.0006849651087749847,0.018077220098748716,-0.0012046040844146191,0.0010488631774376866,0.00754220816164336,-0.014808595889947984,0.02282124774927472
42,0.12064528093212787,0.16750742715436143,-0.11556796643600786,0.01418839825134012,0.02092036481789066,0.18811721981792634,0.0874722035644802,-0.03583307282832953,0.0896809174058739,0.017425358018661914,-0.07913960509510806,-0.07212649312572195,-0.03674093221947967,0.22421965922683595,-0.1662968967688826,-0.2289510032857863,0.14212340989064182,-0.005091642763423707,0.14710527420142913,0.020041125830743058,0.13109127027382805,-0.11930873170813978,0.07121415445274568,-0.3665431898119653,0.000921927224878074,-0.08321837888326897,-0.2079312400539192,-0.1707569639812936,0.12300549820048044,-0.02697865193524686,0.2500100536596441,0.16461054783719156,-0.1704536966782268,0.11684224796392331,-0.019945696259544232,-0.15643383582738013,0.09916549742827833,0.10817530344586504,-0.01429223298733098,-0.34326599824860937,0.056578711693156175,0.15619737375554751,0.1620385292973543,-0.06959236349147824,-0.027312895087862207,-0.059860517113380016,-0.10467324536536368,-0.05046742115897432,-0.019188013207643368,0.008329427176038906,-0.12077753422174746,0.05056248459751868,0.11131954255674475,0.09305740705504356,-0.05523238709305351,-0.02802323118475658,-0.12971272513025728,0.030563558432671518,-0.0158533473701299,-0.002928304077356253,0.06278121601007587,0.0006165797582524252,-0.03829487311717911,-0.009606137265616765
43,0.12154870296001495,0.15642297368042352,0.005045316740032356,0.03620899925160923,0.02398892754751664,0.3155679778640751,0.07702288951703848,-0.013499183439645141,0.041664147489947685,0.040229961505580177,0.0724362263095445,-0.015738157122440886,-0.1001361481291812,0.16068776921250952,-0.20699142075612928,0.15149259818337849,0.031279884228560074,0.11675353968191567,-0.04437697971497361,0.05070791760755433,-0.13908214336819955,0.11970448120497985,-0.05229192160203877,-0.13213795891157717,-0.19291646329816292,0.14156028558587638,-0.13971410505058365,0.0065909256328499505,0.29006533568879533,-0.036520795136739635,0.14748547522500088,0.02402284404808805,0.21824753775864147,0.013749886133381212,-0.020525766743712412,-0.12114360984411432,-0.12671669321334533,0.015030659538520234,-0.12622709896692333,0.3050924365270979,0.1282498487548499,-0.1617046327803465,-0.29314382627967817,-0.0014351539267115077,-0.1521646989945331,0.04442911690754295,-0.0235671007257085,-0.16101801541480643,-0.10615535528109621,-0.009075362162237616,0.2607163727440966,-0.08496813185848948,-0.08850805003248412,-0.1109926139017223,0.052824117664121054,0.008047575763302665,0.04385952696364849,-0.046286765422156935,0.006117239993752764,0.019029512001729837,-0.03732040682054193,0.0015139409203974302,0.03068054821468188,-0.017460949231491787
44,0.12490171427388219,0.14980081016916963,0.10065225187720388,0.048282533500103815,-0.019433282435993595,0.24238713549357974,0.02551478313241326,0.056384017952766166,-0.037428257468855114,0.006314833484421203,0.08704838518452505,0.03822201455456301,-0.1811454225778355,-0.023255011838005917,-0.1254600383617276,0.19278757724692608,-0.027754222792512495,0.12002025037510783,-0.20916051436643432,-0.035431472138905046,-0.0315517572884172,-0.0394874159708087,-0.07065044432774495,0.005657266529756265,-0.14516831380786213,0.2799441334877863,-0.04857885109685674,-0.07394317799600267,-0.19033147995486624,0.05736176430177888,-0.0029934952156630557,0.08991128127659334,0.07742949726766084,-0.06628541831742245,-0.02840831349588077,0.04423794241663355,0.26472862335916436,-0.3467880371109946,-0.07048289694391469,0.17015783228113185,-0.045024008073538825,0.3230967036444627,0.23600640306092535,-0.06951409789859522,0.05879279404332426,0.06555548971608026,0.10263131787084931,0.2249571716639006,0.13495641825703855,0.01899790160661735,-0.22527304684908755,0.04779800957502356,0.06690566380540913,0.09675924010127698,-0.02448543916114583,-0.023360880249576978,-0.008750292842193176,-0.0569509887465035,0.038650072670008834,-0.00887529235617264,0.012315292424103619,0.009118410058658363,-0.04539706588752616,0.010993516711714868
45,0.1292318226512544,0.12549577799913172,0.1806672758516733,0.04071195101764376,0.04291503730833167,0.06717557665073152,-0.010596700193024137,0.06424443319777262,-0.10509032251665065,-0.02191672239728013,0.018420722151646845,0.08862593184397782,-0.19718688482107805,-0.14021295575638026,-0.056049948587847426,-0.020910242186597663,-0.03117946516229183,0.06423193783353288,-0.011516515149627538,-0.14552945681737534,0.20516315960833736,-0.1616813665639295,0.09722428889939841,0.18724655882302918,0.14501392211287048,0.10813038311792005,-0.029240114675544087,-0.12115528245680378,-0.012080219005769003,-0.07114124974299735,-0.04721344562397186,-0.04297929419371052,-0.22704526797033997,0.1737198016905598,0.01622002491268474,-0.14517589072653592,0.1150171463062378,-0.07202247307014743,0.00046231875815223866,-0.08864464833253978,-0.0389630869143196,-0.3064962074857385,-0.39806395849705045,0.004466268867115042,-0.14364538020549839,-0.03606955427386424,0.1964769618728751,0.0678478438712323,-0.12156126612780804,0.08374692266983386,-0.18238161962929603,-0.06494677668956231,0.17970818686167,0.015390634352072219,0.0939246699751735,0.007566098356265177,0.042794773815932316,0.2857390932085672,-0.08982344265421563,0.009013860675098795,0.03957155660679449,-0.03207564084947258,0.01861215377499212,0.021371852440320714
46,0.12369983315775036,0.08538619770373246,0.23221372110513047,0.0355501039347696,0.12805949408523418,-0.11524313138614298,-0.027629768525843923,0.12899290107170389,-0.1249751722874411,0.05265334118227423,-0.036156355046778894,0.011715219846092428,-0.09604860097141728,-0.06080928265146295,-0.05158816985913586,-0.1647938293533934,0.02453518374597992,0.07956056582658805,0.17427266723756465,-0.24342830482810773,0.20655601231764698,-0.13178689448233827,0.39570650483783065,0.039957243607999626,-0.050619005430495634,0.07030100636755679,-0.07513054778520772,0.17826407632125651,0.4354690041115001,-0.0034392099263401976,-0.19171658198903546,-0.14662223228959298,0.08048167331514378,-0.08668072946964574,-0.016407851479719016,0.16153397353761562,0.02143542473347146,-0.030529852893217378,0.011900830063718504,0.0321102496118182,0.045009756494357706,0.2196613292225704,0.1632103138230658,-0.04831419806370579,0.1132460758527008,-0.042071284796811464,0.07466042099136029,-0.07275733519047199,-0.002698188536577606,0.012740415685603561,0.14851133306522712,-0.04895133443709085,-0.16056721415301173,-0.022741365889897752,0.027071018544086545,-0.015700428340803436,0.026424477725464517,-0.05822364434564752,0.00507563647185072,0.01575550980554427,-0.006609347252309952,0.029027336268673855,-0.007786903149244545,-0.011119366223967867
47,0.1273437452397658,0.058098451352369455,0.2243184548052901,0.009162762683432335,0.15664742407182564,-0.18477529171522172,0.002753442054487842,0.048199066583063895,-0.11992867510034234,0.03077199998922375,-0.03157017063909899,-0.0074249061963924555,0.12793413039517337,0.12377427157763178,-0.056962024339047096,-0.1327202775712445,0.09774940141198564,-0.038009587167720016,0.0491269577583863,0.03307502688692516,-0.18919370285205417,0.20223534505164767,0.18369014799641,-0.03708566156180547,-0.13256216385810748,0.07199180308693173,0.20684819839330387,-0.11460932385155573,0.01582751928718336,0.019628709828792293,-0.018508116873653117,0.048010177396070344,-0.044340283740650355,-0.03224169255473608,-0.043108887073724456,0.11604026390347884,0.4013160263329739,0.02397181332431106,-0.07863977465941371,0.08210805680957474,-0.16362122408541108,-0.2632844261997282,-0.028676304763940435,0.15934796545704644,-0.06475123366932452,0.2580966894517274,-0.32621934452499823,-0.10771192167537592,0.09735032712080521,-0.11346659127741968,-0.049490655589598156,0.03048234212168828,0.19785484156680422,0.0556761466776194,-0.10546883131368018,-0.02761462864065139,-0.03816761259377066,-0.06089517916036141,0.030575909351175275,-0.0015004240591795434,-0.01336095262943314,-0.02468704618249501,-0.031867497629684896,0.0016617100121409864
48,0.11247013020067591,0.14277034917480588,-0.26184131616163075,-0.08325036409409484,0.13690205209018677,-0.1897166830086453,0.004152934398216081,0.047681919284878714,0.012980063581775588,0.037993690354638295,0.06463905463241236,-0.010828698598923292,-0.12289874127968611,-0.01403843140656007,-0.013831739310529495,0.15530224312354604,-0.07061716996407356,0.163346018436887,-0.21422448821325446,-0.09069273315292917,-0.04175114346768483,-0.01643344544140803,0.04531709057732608,0.09892339875252343,0.06266729801801271,-0.16296110107271558,0.23231131496876176,0.0620520341220267,0.049457097590167164,-0.013139166791701573,0.009236398256504047,-0.013518877098903426,0.2139243498788379,-0.02942238272477217,-0.032193333830639374,-0.09364238675186508,0.06999799602140765,0.026241671352891974,-0.03962527222641374,-0.1887435215715481,0.08773189744191104,0.09285727077431542,-0.05362562327989348,-0.11110573553753875,0.005260244337802797,-0.04198176595523117,0.09283742790202243,0.003264194829160752,0.03666977518153863,-0.013897137449110308,0.3513617340795731,0.030314513594450556,0.4753585579127603,0.003425601431907843,-0.16929131671940917,-0.10329324128109021,-0.24010664536791254,-0.017863614766764374,-0.021385032730666553,-0.001947116664582263,0.07536976283967026,0.0017532066180627193,-0.02265600033644573,0.03286910578143013
49,0.118410292039868,0.16112713847308674,-0.24050190980486627,-0.04792510201320557,0.0026302981052664202,-0.12068962700929843,0.021151581010378732,-0.004067521236202924,-0.051833021720904295,-0.004752357839697794,-0.04711183703792755,0.046216285022501025,-0.11019265552118579,0.039127471401329605,-0.16296550430916787,-0.000756990008923875,0.057796917059578776,-0.09547307094831914,0.1392563365759267,0.03229683584203813,0.03147380752349884,-0.024704229950443538,-0.0047447065314399055,-0.12666122206230487,0.05623537367421283,-0.1682205588477366,0.17546949545076604,-0.018736114970994505,-0.1491137872070136,-0.023701115112936842,-0.0846807270641103,-0.1349577862218788,0.01513758356698014,0.03793115965976113,-0.021146650138609648,-0.1671441347759843,0.05480853758733975,-0.19769887920280244,0.08086468248292242,0.1793504993832517,-0.1315448748428319,0.02448050792352702,0.09888773175225823,-0.020393050360960535,0.04156527503225644,-0.014131988043155637,-0.05860036029316812,-0.1262549609752392,-0.0651862983831004,0.009635704180775612,0.06404191842562065,-0.0373665044207367,0.02570809285449327,-0.11379261762608787,0.22690525930471325,0.23524166383576417,0.4292847977829855,-0.041614093377892326,-0.008285973539113936,0.03475007571552924,0.43030023140056584,0.05725059497004441,-0.09054209498040416,0.041932772901300014
50,0.12008739240113285,0.171847447277959,-0.14417352273665443,0.016702120882262333,-0.1785675304095767,0.03657176414932691,0.011926206438406717,0.012923419974013587,-0.07362870697932197,0.030926363132731814,-0.0652062698753773,-0.016592427196279746,-0.028680300373973143,0.23204318580696828,-0.21957501537621377,-0.08558787977060699,0.13088934251218862,-0.10337225244623,0.23191437486852232,0.055124384317281686,0.09778599395831852,-0.019539461712305757,-0.012191617830534136,-0.011664382922005237,0.1430371452568721,-0.20568328562615812,0.1370289842021485,0.039631149516833566,-0.1858850627197492,0.024377391362348594,-0.26716348064525236,-0.1734136832390016,-0.09884024374485992,-0.009370803452498383,0.04405476893371131,0.018206545321441635,-0.06645810173494157,-0.22342969415192315,0.02362172127022702,0.23563777341371137,0.05436217667399709,-0.010607321750308235,-0.132727160039684,-0.012764790229174344,-0.09332457232115335,-0.018950530342588492,0.057601636005807255,0.10192180344658737,0.04720294454465228,-0.025748907029564824,0.022042742883137845,-0.00042742641134994874,-0.1371837661288206,0.051934070457377704,-0.2589616275817618,-0.2453782908090451,-0.24623869237565185,-0.052980442558999676,0.03583720470057239,-0.029857084753592448,-0.2791374040656016,-0.03179417304175487,0.05344801362460803,-0.004737542518773119
51,0.11972532640498375,0.16947869784596967,-0.011551734547884442,0.03108122944787649,-0.22980661302588162,0.1644685527254183,-0.005949660919427824,-0.005428967553426281,-0.038016201620588205,0.017022538172227403,0.010707265163017003,0.024884551029190155,-0.045764900050892184,0.14096431665470643,-0.2342812641883654,-0.10584412752846914,0.1632734141076327,-0.044783035841930524,0.07615284355960789,0.09491120682632641,-0.1508248810106394,0.22344189168418685,-0.13658917860637307,0.41075911877035826,0.04887435916150556,-0.09060938392139978,-0.04819954075280682,0.24962170842220452,0.08366195553862696,0.06030659312577885,-0.0829869023810398,0.021358855004329033,0.05774340891519045,-0.17343115108964413,-0.006821309185872093,0.27786335706793325,-0.06711600821312881,0.174730058429493,-0.09610444324626755,-0.24793930995990232,0.08174296629920563,0.02514784696547851,0.02788567143156928,0.09375490600393327,0.05695071619429415,0.08519551466196655,0.05579325567118322,0.07328772703273101,0.010163894645380783,-0.01123226745060793,-0.13492589979030514,0.043381479996510416,0.1471054305782124,-0.002897286309534647,0.20287526222346058,0.15142886538102443,0.02885110866309533,0.12985746090254158,-0.038831385521668094,-0.0012478650967822774,0.10291585668675646,0.008440043521258558,-0.02129094319140911,0.0005824310257291588
52,0.12598959740979687,0.15582006956055378,0.09537160883135891,0.028061524176837802,-0.19731520456169568,0.1259284034303225,-0.031872999995931885,-0.009674484691075276,0.0230457985031457,-0.005119081099966195,0.048362590683839905,0.06805091449686107,-0.11291001245130516,-0.10594801284272394,-0.08610823632534922,-0.09534515395160041,0.019510554207734756,0.0807223729554637,-0.1609912725483218,-0.037182712621259814,-0.12948031154986417,0.0902420359434567,-0.015493923967487076,0.30900456204791654,0.1453786208841077,0.06828092985243862,-0.022262537916689404,-0.027989212483791912,-0.08915025269397052,-0.002473127172967318,0.08954973536825106,0.030827049535597312,-0.11763610396036286,0.1300966964319556,0.0011880670484087676,-0.09599674484781676,0.10537618263160614,0.15541515806956802,0.23808042221882936,-0.09530831298552474,-0.17882641841934255,-0.09833245427702086,0.17970664262909725,-0.10177960986798922,0.11282452063485576,-0.2588608714315683,-0.1654816087805027,-0.1689742422043575,-0.035793925208660135,0.028919609758287307,0.21803521132520146,-0.0030827169999274595,-0.19080922896547642,-0.04706413575616625,-0.28545216782952854,-0.17371516725179637,0.21312908242673106,-0.17535729367945035,0.06998206297056708,0.022740884762733463,-0.05644902944689702,0.0006173843692928449,0.037965769239436634,-0.00892277607339274
53,0.131109267272647,0.12524122675690083,0.16651677716770605,0.015461988571555122,-0.09845333685794586,-0.019726816992097756,-0.03125778335878612,-0.05244504780685259,0.11298224964062242,-0.025966297065341964,0.004053416527107946,0.09447166962583953,-0.1469622640017169,-0.1958508433298138,-0.055956289048827004,-0.10025049179560931,-0.018242752390739792,0.02947019783663949,-0.07695377710800842,-0.06124496835544237,-0.03563860468407884,0.053359912515094234,0.1684946402944325,-0.052744067026634034,0.053065777122428374,0.0910220545713659,0.026427346218114427,-0.05908338021656272,-0.25375463105230317,-0.05660232555677075,-0.020242154599988717,-0.04809919069114736,0.028220858106858836,0.12532164427604692,0.0874597786941737,-0.12239253811858572,-0.3511112847101181,-0.0447854516616381,0.04211194162632276,-0.021487306685532857,-0.0362300102600084,-0.007546195853646187,0.14597127317362313,0.1101408718518804,-0.0008873671055318819,0.17032545610310584,-0.2069289460920807,-0.05857099834943543,0.08291872679374898,-0.08708051507121817,0.14548557060985817,0.10042325933218865,-0.05377907580389064,-0.059790819402552514,0.26954322278496934,0.2577069590468311,-0.4650024992685326,0.01626582168601398,-0.05202867595359713,-0.09936379953414579,-0.017060464756838915,-0.01287327945781458,0.02226393759449713,-0.008365128159321084
54,0.1297850785784982,0.08767569756290382,0.22783931730461687,-0.010775294818572291,0.003858465306449269,-0.1555744596987173,-0.014356360714089824,-0.053065859784704295,0.16107529759369285,0.03372861949031824,-0.053468757161170805,0.01076953676487863,-0.04985111149903795,-0.04506667503767391,-0.034956572818210734,-0.017708544699458713,0.003251225272267776,-0.06725701393475736,0.057442335791052256,0.024396265621570858,-0.016262739932837274,0.07499999767823465,0.1686650179198989,-0.04869660676754285,-0.07763199881982612,0.06323365462474789,0.1127369465685425,-0.029090083864093612,-0.18131222920854406,-0.03226753825281724,0.12237965738225443,0.0620209323151394,0.2079751305859503,-0.10502473466032157,0.11187445190776392,-0.058982621075454295,-0.44005549811026623,-0.05913937978174744,-0.042471485386951696,-0.15162725047487557,0.15339012897962834,0.09908035316615975,-0.023252795779566016,0.12045763159366356,-0.07810253430786791,0.051768198718077335,0.06760471475006394,-0.0782966962726798,0.04457335546941321,-0.035839053675710206,-0.20854802374886308,-0.23590099091841488,0.11208189576561614,0.08589503693819509,-0.2992047697425507,-0.1845914273154568,0.3480089301817396,0.049072150710123094,0.01045185164557062,0.09154070829413664,0.0035221326225818306,-0.018419051364373384,-0.010352629092858473,0.011023643427174136
55,0.12752616448732387,0.05419251573854392,0.2242425528227287,-0.03126925884257114,0.059620492149203404,-0.2191730279953908,0.037630413430045924,-0.07638905588583972,0.16137916757007856,0.06361311072594297,-0.047839900209267545,-0.04356541249820679,0.0659650689197418,0.1362927397575459,-0.0835760124425884,0.08201130759877158,0.050572002822836915,-0.18198222889801574,0.14394000695054363,0.08204037802060654,-0.016565955845118364,0.11052948952761778,0.08879450579531523,0.1152959767257281,-0.19437383673473424,0.05457680448289089,0.3034270767147574,-0.157500330237612,-0.08791604149095388,0.052994630171863955,0.24315777962811047,0.17860455775664774,-0.07150413327223801,-0.01829244285785763,-0.030298472779897778,-0.007211615421700096,0.0633140936819086,0.1344862760601187,0.012909621304548091,0.06556336211203107,0.02228476115398964,0.07246466327397152,-0.0771417055923829,-0.22759107313927468,0.11743634521831621,-0.24834011822127114,0.2683966498596321,0.2319057437811759,-0.12858288304794827,0.12191434166487372,0.10822625988100247,0.08886121985838487,-0.18828168880231513,-0.09956147363763061,0.15189449081334677,0.04944675275800427,-0.13604003266542164,0.03870832938770416,-0.016601921157651064,-0.02367925286373243,0.03639543405680326,0.038718668955630704,0.0196477533090685,-0.009914644465426531
56,0.11857886654976703,0.1334988530843907,-0.21423596042889126,-0.07253319438571675,0.02295163371787571,-0.22287182942945605,-0.04874987853453606,-0.00040659401810660164,-0.10073563991017198,-0.04765466136645511,0.05716967401279919,0.08599926526851408,-0.08346681004583627,-0.11629859952086417,-0.03508872108181663,0.29020312049863517,-0.07461485387688689,-0.03727318423554224,-0.007705377912177656,-0.003225889660442658,-0.15055585792640439,0.15715104720269066,0.18004705131402532,-0.022767671129150617,0.1650683405549227,-0.16854765058671098,-0.22539438284357466,-0.07691680078201642,0.14709472160853626,-0.008889834610087438,0.19960172584545496,0.1818742238557466,-0.29762324811388163,0.04508218980251802,-0.004496692027201682,0.08295916933420096,0.012552311841652328,-0.06798790421331503,-0.04213175874286443,-0.08096935581037572,0.01867286317777334,-0.014550766467695209,-0.02784854659330946,0.17941519333846712,3.297172861342103e-05,0.2085924291685289,0.18331409604022686,0.16144541125141382,0.2369863404114222,-0.16452290523420282,0.03451541689047963,-0.11532327400740337,-0.28408809461995477,-0.028368330831568866,0.005934997948764509,-0.005314028223503159,0.04840079747626695,-0.07078727651080374,0.08188957481209626,-0.004517302836327494,-0.013748002226876416,0.00663176634227268,0.007042425188110449,0.0060215333384705146
57,0.11722519243600817,0.14825570348160616,-0.20931707019709472,-0.040370163670496326,-0.11296673350698003,-0.19158620298381415,-0.07533510120276704,0.08799239831407539,-0.15559955895041203,0.03983988957629875,0.04158122421014716,0.007770417886781251,0.0016938640313502776,-0.0012570874462651345,0.04463377815714025,0.31523123852583274,-0.12036535358475717,-0.01891265525071284,0.04938889428808905,-0.025304444494139027,-0.026306184095150106,0.09286928412081966,0.19010795372967476,-0.07481352989452741,-0.003916582918388098,0.05972615479261262,-0.21001907331669284,-0.004513576240013334,-0.03186611567511701,0.08185327417140553,0.03082488218046961,0.07046559418334594,-0.003336174165340322,-0.11220569678132887,0.09545825670513959,0.21154663832247564,-0.13211190811901102,0.035698654722257854,0.039019874658217435,0.1651511477176225,-0.0754544007489588,-0.060058117807319594,0.06338336716750476,-0.11438154383375508,0.06733905189221383,-0.24809125548056887,-0.2548410342629194,-0.1899817410906328,-0.30739522459849594,0.2068629741193112,-0.25824348125968366,0.10650345481289819,0.1349487077534126,0.040434328912106826,0.011660321919199058,-0.02882649207830243,-0.08959694757637654,0.15683798881870645,-0.08248576452636291,-0.005470608302559521,-0.10675002287193357,-0.0306061953802019,0.013712516923851382,-0.032417549675170305
58,0.11287660541272286,0.15572378418933092,-0.1140919367322125,0.007550327119585878,-0.3243805804914187,-0.08247741056252132,-0.1071751505117108,0.09546059706957997,-0.192017642493353,0.01419674882449047,-0.02898646202217755,-0.08609504670154204,0.2016171809841834,0.07703897278266815,0.11700855573053856,0.12921453316534418,-0.05884536614158846,-0.12269735616927828,0.07385632647594893,0.03579137111925807,0.18089177166360926,-0.06872943473385047,0.06244369550063019,-0.057942263404525726,-0.14467571521687816,0.3678357225101868,-0.15889838800560754,-0.021604943735311275,-0.24208136390289955,0.015331678654377396,-0.15271988404019363,-0.10991926198426284,0.14244629815106713,0.11574434007284687,-0.1661683531328646,-0.09893766321693814,0.1119355673497134,0.37420178289535555,0.03143792317796417,-0.12328019166357945,0.08058589528107007,0.0403701669807911,-0.09547212117191331,0.00816082320870129,-0.040551287241498576,0.12567013978621594,0.11064352578167161,0.007690759471314049,0.1426293801502611,-0.057712745859304665,0.13473588473735193,-0.06707405230558769,-0.009967967642334284,0.035666610867035306,0.011977036239929462,0.04208454737082158,0.04549959418446905,-0.08855988061059691,0.028239578042137947,0.007825782837143247,0.037345042362061626,0.014262681709271668,-0.0022464007298282906,-0.0014529723794526501
59,0.11122523680665572,0.15749681594904505,-0.033333291819692946,0.02075238520491093,-0.3764789602382175,-0.02004419348717039,-0.12417783580399308,0.08863832505323568,-0.12229826162635125,0.041363776038784286,-0.011432033668902563,-0.07706220034557189,0.2869838698799013,0.05685893941732142,0.26743053253754706,-0.07586765851240002,-0.051288357652367486,0.03783776660769233,-0.01941492967248476,-0.0229594120314688,0.0721391953373515,-0.0993734593099535,-0.09080391390252392,0.07780004403326715,-0.1541022446987363,0.03441596628972992,0.19852577310636246,0.008636008510396233,0.29321918261798824,-0.0918124782509677,0.18946956656708874,0.0830394710999785,0.03444943820573386,0.033442894516939034,0.17334002658996397,-0.08418659522266188,-0.0875701976786652,-0.44163343787008935,-0.10552995144355609,-0.16529808297579032,-0.0758574856485711,-0.11667136382955859,0.03518915868141537,0.07622563932240872,-0.032583595671980846,-0.0631138446563139,-0.1050344189060024,0.16510156784479466,-0.023424194058624503,-0.011372694786101756,0.04728034126843935,0.10701019255026603,-0.03444332857420912,-0.06903973057483757,0.007288972368488106,0.024193069540462298,0.024613346293848103,-0.02627744243801372,0.019108736241400817,-0.006422568138725826,0.028071725601422515,-0.013586092229861069,-0.007276593860711639,0.01596877572421199
60,0.12125933875375573,0.1459948925121347,0.06406092083981978,0.0009677155883794476,-0.31617831314112976,-0.015864074430048683,-0.11016129704787912,-0.014662311607394103,0.02835601804627914,-0.03439205012583049,0.014316806569987003,0.028603411625496605,0.10946165365965778,-0.177004673097198,0.18957408401149622,-0.22047396683912832,-0.023413188137990485,0.0915984679084137,-0.13812064949730116,0.025257640523025413,-0.12463578661332783,-0.028914595851303633,-0.1047717698283383,-0.09311530148048726,0.00525866115862994,-0.22381687413825305,0.144006521526731,-0.07389565673734849,0.13916659878743953,-0.003967811950929621,0.09063756854322749,0.025927040505090787,-0.1032457808173504,-0.04464833426616112,-0.1266467625301545,-0.015253195015247106,0.08797540962265774,0.13999194902541942,0.08767873051574751,0.3299818741780901,0.01933787984266945,0.20320246502260117,-0.018058225323298482,-0.08401100117284452,0.05699301035796348,0.14846186061081756,0.2471796719858568,-0.30862720771199503,-0.024555585075749495,-0.02568557394078378,-0.14777826505034775,-0.26361931601786726,0.05951303291317567,0.08013302858084209,0.059531472192935996,-0.032098443122809774,-0.11703449465490753,0.11810325005676829,-0.07737093216205977,0.017807760970319803,-0.009387310743205313,0.04565651613362981,0.008015523337871838,-0.01816482773177416
61,0.12880648188945928,0.1118060628834226,0.1348752848444275,-0.012445190516266818,-0.19279017549984173,-0.06955137499645714,-0.06541729847224564,-0.0960034452685301,0.22506062547785427,-0.020042416046785833,0.014548101611825022,0.04319961375807416,-0.05058658184811733,-0.22580566080138115,0.05933883875857238,-0.1300383691650088,-0.039830608813315814,0.10139316188150592,-0.1135631475702715,-0.01627994178489886,-0.07715855415240945,-0.017575149578069618,0.0327873126400608,-0.3376688009837368,0.06004122598593761,-0.16749265576884304,-0.07916378283469162,0.02443071462895141,0.0321912919246001,0.07868546756295129,-0.13603740035798714,-0.09113803428643141,0.007229041862157504,-0.0542395653628224,-0.025202111634102298,0.13130712394840638,0.05966520528614476,0.19813204903549,-0.11776762595961152,0.10387920151854735,0.14063314036545818,-0.0488080174197317,-0.12535989736931633,-0.018021328618167284,-0.1333992928156299,-0.09683356378713513,-0.13054375124943865,0.4481765281637978,-0.0141546744952801,0.10587173183562484,0.02813909124975426,0.3177552728144337,0.0498787426994837,-0.03059128203031314,-0.045254943306132944,0.0069793838280649,0.20499868990724032,-0.0868418016394431,0.0736856585605767,-0.003080142629187682,0.05416952208505654,-0.04095071416755412,-0.027462833969707293,0.017841729439250106
62,0.1265910508018148,0.0647864022093682,0.20075848389792603,-0.043440346242997606,-0.07867581602464015,-0.18689018170505253,0.006844539972509167,-0.13159401350324482,0.33529787618465107,0.01273280508125081,-0.06989897423589281,-0.05082420653260456,-0.053665187448692434,-0.01668159352563271,0.025905926783527634,0.10645090123224864,-0.05119974447491666,-0.07780297549837867,0.04894914427589961,0.10156216001712097,0.004353012795973166,-0.028812654869471824,-0.18991668959125368,-0.17799634510140078,0.051861925977453045,-0.06680456239079754,-0.2693877432484524,0.22198399369948874,-0.04571264733475383,0.04432860736284723,-0.09956151864686576,-0.014435988033377839,0.2415798824004712,-0.07926893518638059,-0.04093076778045393,0.02677340814438376,0.28515970465088664,-0.27410874900444376,-0.05185197141428714,-0.25359643781162594,-0.1624518735786431,-0.2326910396595585,-0.05124433285237376,-0.05621405613253991,0.15582724451505145,-0.05856940973412346,0.1125578694174872,-0.21115378823675113,-0.01048047753371778,-0.03178260837483854,0.017570166951197674,-0.12747709541614444,-0.10748016826538148,-0.011159504395152953,0.03531478037086022,-0.02100842268687672,-0.12304737804012884,0.03251423642949969,-0.013571281585725353,-0.007510542285006962,-0.0338498344004291,0.008153947344269857,0.008277013112666223,0.013659742891067191
63,0.12247234371692203,0.036786323000106765,0.19861999603343736,-0.06128803365588947,-0.004665847967795871,-0.2381316431308294,0.059480452087445165,-0.08049986061330569,0.3322906001292218,0.10592656047591636,-0.026250912480520056,-0.15620449313809964,0.010509934020170681,0.2706900415905844,0.007203066012518039,0.30108123100110357,-0.06954559963263121,0.017187026602714373,-0.047264287181114265,-0.0006127759293651554,0.18637384690872766,-0.11931884131178583,-0.25700286960868607,0.23093866401491153,0.08982703380955018,0.028038335105942645,-0.06900938227106616,0.010678158932411244,0.2012359531748274,-0.07285411795684238,-0.08173484306498847,-0.08834670675643733,-0.28622495116158103,0.18895982939207495,0.016668253135117106,-0.03241952556444029,-0.0764426452639143,0.07664498321556004,0.05211470118471091,0.17495355320878192,0.04073725439139504,0.16014273646479582,0.11056832590472934,0.08440078354719524,-0.11582177888278089,0.13331775952650182,-0.17727930854204707,-0.04721576470166755,0.03665354405030086,-0.028658798839175992,-0.033317508783567595,0.055963220892099874,0.1420680851449198,0.03633698990051057,0.002033035989715111,0.035263862601604565,0.0629942130417354,-0.06006790369980711,-0.0033216848431318266,0.005252001543311263,-0.01914887849138508,-0.004362734928198395,0.007824619076232945,-0.02046122466855062
