,0,1,2,3,4,5,6,7,8,9,10,11,12,13,14,15,16,17,18,19,20,21,22,23,24,25,26,27,28,29,30,31,32,33,34,35,36,37,38,39,40,41,42,43,44,45,46,47,48,49,50,51,52,53,54,55,56,57,58,59,60,61,62,63
0,0.12794223682483474,-0.020499084520125003,-0.08963393790832513,0.12295942369552997,-0.08901406808655814,0.05525982404544864,-0.2841737880868617,0.07893729981347533,0.03818217926227937,0.28489986721083155,0.19414071979423433,-0.09516585623763488,-0.16969678037633418,0.23310688674747593,0.04941704995235966,0.2612088672482007,0.30714356772766477,0.15582314159203925,0.2065725565836663,-0.23600606252307813,-0.05433528885753841,-0.04129033897728264,-0.021875423203296603,-0.18279174919798793,0.16554046344801746,-0.02251490882299416,-0.16541088034094106,-0.2619612934032652,0.25569636012113767,0.05653097386331628,0.09805795569993314,0.054801982805967146,-0.24663736660721713,0.06249830609574598,0.04057348630764486,-0.013861656076648647,-0.03539144531580115,-0.04714862155652682,-0.0037543683806134935,-0.019071437862916835,0.15460585462170706,0.011760510492636525,0.015435009113639828,0.026137678764509235,-0.041272327209022464,0.06724362368696549,0.041641729376396555,-0.020137122877040812,-0.002497513977774435,-0.059104067735364765,0.08135447423155101,-0.005744883620260032,0.021453778121099467,0.032512861474373184,0.02219475213531224,0.015665864841039982,-0.025579192378890798,-0.007625474845441482,-0.03585364742437205,-0.003743725299572296,-0.009429535441901577,0.001114164604040529,-0.003381019667158012,0.0032567996575622762
1,0.12744432970616193,-0.0891619202164538,-0.07503458975911928,0.2100118174012638,-0.0022471829502072292,0.11120868545356355,-0.1963615564913339,0.01041867879723758,-0.06519289816523113,0.26110739545739964,-0.12115000811042664,-0.05809708144479002,0.05069879907870348,0.028008825712580815,0.01612933885381944,0.33920870329038494,0.15163707854896177,-0.10422116758073753,-0.1635024180354954,-0.0456140114343473,0.002543751134672258,-0.016020647705541992,0.07441084552703463,0.057674975937890005,0.04843659849542527,0.3829896820445727,0.22169506006200396,0.050853986540882405,-0.13623750132119133,-0.0072566514876868295,-0.07959117663825277,-0.005080600831673577,0.1916568505533336,0.025351409280076655,0.0192867590526407,0.07289469054228208,0.24353446198014367,0.06108378318815259,0.026395539925087613,0.13213042664520122,-0.22311977153711038,-0.05652420545778837,-0.07246510149021351,-0.06416197887975775,0.03234475408396773,-0.29563375501660033,-0.10523557863608447,0.035438204049539415,0.06361580789289539,0.11482655488963393,-0.19290204762638938,0.03930212760118571,-0.04964006290498095,-0.058412326458776136,-0.08223312932018303,0.009889690332843667,0.050469567650530366,0.041896697444541,0.08613892063432141,-0.00797763620451152,0.017242186042547132,-0.002517673166962231,0.009588572002600448,0.00784991428164936
2,0.1307391810023853,-0.1102221702038681,-0.049526225343103025,0.17234831420188074,0.03724151747610202,0.16491665416027743,-0.08123876921353745,-0.0026296391900387656,-0.035577684940426395,0.1548016612725994,-0.21265791630081468,0.029744156865179786,0.1804313103673845,-0.042280490781416255,0.09458281988352102,0.19400356811906366,0.05955949113921118,-0.02527218879779637,-0.24896870816972497,0.03342494422695505,-0.025540468041033267,-0.03929086644435685,-0.012661107637121593,-0.000976917939924507,-0.14978203359933911,-0.04115818221887572,0.2522914314806252,0.016331512758102018,-0.17723164992859117,-0.061018443753314874,-0.1624468151438918,-0.08373058693008102,-0.0946116038050472,-0.10520563144749481,-0.12385166546784358,-0.07895668559284884,-0.2940300315951003,-0.0644311629032515,-0.023784532683607088,-0.14882989250524137,-0.003477235143878793,0.047826671690354386,0.05893256073123534,0.06896927150012913,0.057498990500894596,0.4681002895330757,0.05708158446631373,-0.02750183982286475,-0.08778025016193912,-0.12829382893763125,0.12281427692312667,-0.03028710817206899,0.06805373970310412,-0.003295782086397185,0.17055381747608822,-0.1254519938881485,-0.06840544982999808,-0.0673765165579124,-0.16567875346464842,0.03641909739855905,-0.07033128789714305,-0.014519731386715834,-0.015173093371392323,-0.0046527818485180795
3,0.12941616547154786,-0.12381344444482512,0.01681063519126122,0.05956938252351156,0.04853540459322696,0.2828277442283291,0.08722861428867923,0.0354364301121261,0.0446911280700997,0.07436416988777272,-0.12543326921500464,0.030795633212601897,0.08409231407949579,-0.0025008763419073973,0.2693911210536017,-0.06968448830074356,-0.10155568312446232,0.17559174961359394,-0.06293093536203564,-0.021188790651527394,0.00403778394915494,-0.026304671580675842,-0.028502748922731552,-0.09349467659604734,-0.2139619118521986,-0.3122646065797092,0.20745205190286936,-0.12430986216067688,0.08777210680952384,0.01981401617497774,0.040542778264824275,0.0010171723986884817,-0.05341599939349864,-0.07500014003235092,0.05860311574447673,-0.015715772581646387,0.0754712822627162,-0.026541167991724835,0.04420160279844159,-0.1904387536231669,0.08710291218482143,0.08085001704867506,0.05063051292141764,0.033396747600968,-0.09323773462921024,-0.3235342863933563,-0.12579395851382774,0.18233500603411296,-0.1667727889720568,-0.011651064579495322,0.14854412874256484,0.0184227585422061,0.0018123932657050333,-0.048662319437339493,-0.37409168850359814,0.1951207972566101,-0.019765895264125602,0.027721620158609135,0.0595371060097042,-0.056507705846143674,0.1422004941754098,0.027139293561262833,0.014399416009469168,0.0017787737307321796
4,0.12758810407298446,-0.12432326363306312,0.045601247487059626,-0.022548447829980972,0.036458334110573594,0.32408141540393387,0.11144747977327352,0.03091530608037503,0.0514861442627465,-0.010698565753043565,0.012965932336802072,-0.002710603111053804,-0.023492427426152776,0.0167050188621463,0.25173700573069646,-0.10381676453279935,-0.1649197135671276,0.2321818502278898,0.029386944198914543,-0.03048981023369745,0.05205567460274646,-2.4114813709301755e-05,0.005659129304122409,-0.11163813903948638,-0.03949157883383912,-0.05679892080480927,0.0979419323038926,-0.04487874243882692,0.1136589623866607,0.06739119384887315,0.13196601162572907,0.13835330285243516,0.13028867703538186,-0.03234081074601314,0.07341749249702777,0.07587552815948512,0.28294684417576155,0.05002056623364973,0.0013506974814440054,-0.015536594443913292,-0.01762960407768549,0.006390444118075461,-0.01784217786452698,-0.1308657977678152,0.0530957315059921,0.07745790155889046,0.07317170465115502,-0.0800700422688779,0.1589099396370024,0.07914613375579554,-0.20692967882348007,-0.025651737351055418,-0.08015396811385997,0.1699384407418816,0.40113634027874834,-0.1515877390270976,0.004775206785352447,0.04189294474736535,0.0016023323767418857,0.13731678812422715,-0.3442481504389356,-0.12526593702157085,0.0010359063204317923,0.011492976353452788
5,0.1294327156145232,-0.1211533920531962,0.05073006278671288,-0.09054706109193972,0.01277759591813743,0.3105779073797318,0.022392903123601676,-0.023980787627036516,0.0005808341424515806,-0.12859641193890042,0.08275806360612062,-0.010918305570034065,-0.05784919333741444,0.00935109502132303,0.059624154044698015,-0.0022461650877448613,-0.10088782396984997,0.19231905321217446,-0.08188858584543957,0.00010033913694538349,0.10383684802893123,0.0003420445627761422,0.017752748105833042,-0.16951239793461065,0.12394762562948645,0.13719643813909133,-0.08801612832156688,0.18903362220775588,-0.09189900466293228,0.019519783105173535,0.13870614097189574,0.09013347615804013,-0.11036955396463383,-0.010940649879093059,0.062491557552068325,0.0044272416538161195,0.007471620181016252,0.0237766484880651,-0.010482618621517753,0.14937240353640008,-0.18860939836058258,-0.06481981660203681,0.01863606532124691,0.14628402058825155,-0.013682954229005846,0.19596977673130733,0.10264908434559812,-0.11325069570323464,0.07413345759309295,0.009749256418328807,-0.06001688687448417,0.03249866755246088,0.019254873455991715,-0.04279459522005086,-0.03475947779577507,-0.00019653748309497732,0.19448547184464363,-0.1632918471504178,-0.10025937209040325,-0.2797796784893015,0.47943982753269193,0.2504351974188269,-0.014723253065485498,-0.004638012443223331
6,0.12943498266653597,-0.11208315188624939,0.049054985251608105,-0.15077658809739403,-0.005578614149854916,0.25813146115974483,-0.09539602384685808,-0.07956229847780104,-0.05281849773035564,-0.20313602213418552,0.0943134086720134,-0.005125503795192929,-0.04981322024333509,-0.022125785024778882,-0.1096725407351217,0.0536369570194134,0.0037902744383582765,0.14243332411774245,-0.15959175208854973,0.03221812431363685,0.08607663659383094,0.015124140927317503,0.015380581157357567,0.0031465384277682487,0.13789928787630829,0.10573983681305901,-0.1883591731598794,0.13264726858821013,-0.09098985081141571,-0.0023997297947464594,0.00427854762762029,-0.021031732240430034,-0.13660397218570025,-0.0877667133391847,0.044617233777572735,-0.07409614434753392,-0.0893470014956638,-0.01846793637371008,0.015034998524113056,0.1209967877114855,-0.13645643424176784,-0.01402116919708184,0.032136637331868834,0.2258203900755678,-0.09022802552013107,-0.07348113688544462,0.048941307601364094,-0.0026204110982677165,0.040007658297619944,0.058014569512017986,0.23662973802966109,0.009659906115773352,0.0832643453730499,-0.23606602097138701,-0.19437317995228517,0.06198018897363304,-0.20308950114616933,0.15898522032607507,0.07250215219754891,0.3005825981071824,-0.3439872217346835,-0.23720900771136835,0.0008823927558285023,0.0025334811465233635
7,0.12966577385171715,-0.09850681917985842,0.035899003328267745,-0.1723044727501406,-0.011478735710635068,0.184154343446462,-0.1822334390067437,-0.11426361692953488,-0.05978563288607526,-0.2000177610346452,0.07476225887733826,0.018862244024819886,-0.02050108464478583,-0.05130014534622438,-0.18291927308709802,0.07619390864689368,0.07232505706049253,0.15852339014309147,-0.14192783184518848,0.04560135328365067,-0.027571272270013776,0.06675815349861104,-0.017926052882222952,0.37754361041315715,0.05304875702390792,-0.026395757586601617,-0.13529930546928495,-0.23014573389241044,0.08351935440058796,-0.020271657067253375,-0.21689731646214144,-0.10946846923350156,0.05582323793478566,-0.3862207384148355,0.02918051820714978,-0.12584234152272142,0.008641757695050479,-0.0037957735202280365,0.010463077189274441,0.04499896534787805,0.22404709998471242,-0.030615657074258514,-0.020041589970624926,-0.22974525302813434,0.14354924352692608,-0.08280521271476658,-0.11152198790620985,0.14376145875167445,-0.09105268083143997,-0.026523695615136685,-0.07221601721194625,-0.008420788278375155,-0.021540031533374214,0.1560819573662605,0.13407869608452824,-0.03877744600710609,0.061141901320733646,-0.02385329794078274,0.002564789320512066,-0.11589882487441452,0.09695480664165734,0.0813204501615729,-0.003017826252915518,0.0075795862613108065
8,0.12896932954139828,-0.06291692043560179,-0.06652251823049041,0.17896395660804482,-0.07642851404781992,0.0012238688092454375,-0.2483215529973829,0.031221575375685068,-0.07975910854318066,0.20694026717472808,0.15370693223020443,-0.20839481147329175,-0.27486289576912026,0.08458642207556659,-0.11860704440803718,-0.15449457077275755,-0.08201961128322038,0.1059445517279128,0.18002004762407714,-0.0650977558162951,0.044100333024649475,-0.019528787825123337,-0.0617908437628247,0.08313069766839482,-0.20877527266322252,-0.37074648030545626,-0.1690112419010554,0.3796768726829997,-0.2012777144167741,-0.0083039846579917,-0.06151004810127765,-0.06537305270576783,0.29125279258289694,-0.11742261210626477,-0.10008517514824497,-0.017464172613242613,-0.06327232158052855,0.048840519102699376,0.01034990862443663,-0.06520040074983831,-0.15165951049905296,0.029376732480462284,-0.009892103899117804,0.02226807863475128,0.030740095381263266,0.020891927050572537,-0.012894171610384766,0.05965608520258145,-0.03937501702304191,0.0527128581519499,-0.07365769745045413,0.009920587587057963,-0.029341065757792804,-0.04572499654500672,0.0063969570813224436,-0.03446644384325705,0.030472140995391847,-0.006377983184072092,0.05262101658873623,0.012135196637992215,0.016756623370805367,-0.008382346886787007,0.0013535015844633371,-0.004752559657019445
9,0.1280103384020943,-0.11187994973203473,-0.07108248313233972,0.25653537647919133,0.015226062349074143,0.010521076919175976,-0.12077774848210807,-0.01366487104436026,-0.11593464359036945,0.08349626991819326,-0.1259075815149817,-0.03207772022946412,0.012636225505444215,-0.07926660261340138,-0.09433812903138449,-0.07178269867634121,-0.14045896937167424,-0.19751495232287325,-0.09377467722305305,0.19515748360109572,0.0864144250957812,0.036715257533136,-0.028469058770310716,0.1422688336928119,0.08852106795219616,0.023433477282017813,-0.16898787651442249,0.1264425357786687,0.04405632809696433,0.04654953667377054,0.21761468425846817,0.15179495470710247,0.13859558071642947,0.02403339862617384,0.09606556859869067,0.10120124596303941,0.2597987776211909,-0.0034145546126103446,-0.030575834306792088,0.09305913570481729,0.3233905118066569,-0.12238890461053409,0.11374807051094259,0.041591642898424305,-0.14377528491887498,-0.012872235883854444,0.04954218794805143,-0.14825380737567515,-0.08348571818627015,-0.16628477874079722,0.27164002754932515,-0.07283913481853083,0.020010785174562132,0.19702166848628005,-0.019089427618895177,0.12187052264306472,-0.10846575331337975,-0.07298822149069197,-0.2733895398251776,-0.06977684679699923,-0.059285718654875044,0.010689934951045196,0.00567121709771149,-0.005747671213324038
10,0.12988450573792923,-0.12492357249528645,-0.053554924660943644,0.20957512023165148,0.06205151118413929,0.09056357282330807,0.00587319271429354,-0.009047453051678284,-0.04196886341238929,0.05612649918185525,-0.22520992194720527,0.06019521392634683,0.18869673124612774,-0.09305311757037213,-0.009870706807454367,-0.019505781940544087,-0.011640351715122163,-0.15481136294914305,-0.02330527120972107,0.07969788531405919,0.025647004309560646,0.002503332595729761,-0.07518038687169891,0.07475844757845858,0.020272810747259576,-0.21671489904297167,-0.2298422332664925,-0.0033701941398768254,0.04836009991067916,0.0005920851959907332,0.06342042997544803,-0.04184118406453352,-0.2111504309855551,0.12357660205824346,-0.06431436406080114,-0.10326568545162353,-0.274411653843044,0.0038483538448724347,-0.018722210801606232,0.1542488847710643,0.17455159355036365,-0.0451247152473129,-0.03430948131176782,0.03199482171897491,-0.031541787093124746,-0.1104821061714079,0.17832905727276988,-0.10746871548325201,0.29082095032374616,0.18703823452906698,-0.24970273660674264,-0.011046405475700148,-0.07185776705901332,0.06658974327817535,0.06227687792318655,0.03678366852081986,0.03378776440507836,0.1368741421984562,0.39441964270671054,0.0537051603550375,0.10175280926860257,0.049085521812091686,-0.00011225165300250695,-0.003617259781430208
11,0.13123101919898827,-0.14096554219771432,0.003719878046103129,0.057504957473888965,0.05541886236194069,0.1563271716960954,0.17368471376868627,0.052860117738262935,0.07069648893082184,0.05007311161703818,-0.0733264661921536,0.011940038428877128,0.076245720343903,-0.01424173138348335,0.10691519996527359,-0.14280766987692795,0.00411576039094283,-0.08468810553543604,0.2824305328749518,-0.07680457507975177,-0.09879153706519696,0.05972105526927019,0.011414831545068223,0.16015857579137843,0.05271219701814296,-0.010158902369062476,-0.13193089259040663,-0.13438245088247347,0.05210290801422707,-0.07398322714637567,-0.21256633684899684,-0.12104617343305653,0.07280825620839809,0.21738123244828403,-0.06504884261622487,-0.022156112308551128,-0.14148738671226954,0.0012295629895909613,-0.02908767992869802,0.2712444463246389,-0.089555024492487,-0.11022754169747134,-0.03092330802489988,0.0958803054753621,0.019089954237459357,-0.1869622584162548,-0.043150969676271245,0.05327305515690185,-0.05717888852065363,0.00735216360248328,0.16455290246041734,0.08505661540918323,0.07212991461579497,-0.18560499433807076,0.06206009467719548,-0.1678326352132971,0.3424865965633594,-0.16549514271507104,-0.31492007569074393,-0.06753326159737667,-0.15704288852667933,-0.07245368604337875,0.0030959264830405283,0.014527617187590039
12,0.13037191352085317,-0.14141874132411986,0.030270407659517187,-0.039610532434596064,0.03437004116862255,0.18493344543779686,0.1858993365296444,0.06669715086771677,0.08273691503539161,0.049989684982944704,0.04038063879241938,-0.03356891959260076,-0.03847617331134884,0.02710464476031821,0.10349941828164155,-0.10190107715793287,-0.03069044871442675,-0.09796988056875149,0.28747213995047377,-0.06286514310695021,-0.06905861888613768,0.045053451768997325,0.08233215735791741,0.09663072412568235,0.06915781810206109,0.2116357597431753,-0.021295842849585453,-0.063924530811925,0.014930035325044472,-0.04103375047064102,-0.11958692668425458,-0.0748858612434758,0.27383847462652466,0.06229347452728037,-0.1182442257840256,0.052058941231437394,-0.02974950040458035,-0.004280062799497535,-0.028343264328838155,0.04118877656289205,0.07103386328006658,-0.023115616094661534,-0.05303557517307506,-0.16885538774859055,0.02807157446160298,0.2048688325574582,-0.03980506363697005,-0.09714391126523308,-0.007513315928259574,-0.09391687415643107,0.10669456759300147,-0.023865385261339148,0.060847909262369125,-0.08181530630938078,-0.06927933093051782,0.013350899406467713,-0.5374666350380151,0.1406422243959373,0.21871304402286118,0.04817310945792665,0.23796763582388059,0.10474565009291227,-0.0371121719878098,-0.03323621675753849
13,0.13270157532302942,-0.14252834708382142,0.040185691834710734,-0.12547031708623832,0.014438761494771761,0.15196391606917442,0.06397046731425082,0.004555756680542589,0.02081328253258652,-0.04259367020120891,0.0664777008815165,-0.036001098362511696,-0.08508733181801206,0.026045118889810148,-0.048572870818361216,0.008772427133812988,0.0029353805633096086,-0.17927861329396827,0.07024354392690096,0.024832250146425705,-0.006234202301315411,-0.013641981455840543,0.03329986995272515,-0.2030889930451424,0.07298165934605813,0.16380052538060327,-0.01400580603516065,0.16056854089049044,-0.12008873649600646,0.021719545170341397,0.04828557510102345,-0.03455686135920555,-0.006777436536253512,0.07175348013618636,-0.1785661104186672,0.020607035788636038,-0.20460873277826308,-0.0014421446158911048,-0.007219247563716652,-0.1606681317753798,0.26843224141075106,0.030095669074753768,-0.07904882123386353,-0.3019926560097411,0.046749834179937576,0.08876707435096379,-0.10717768412708731,-0.022461147502052494,-0.07564490124071328,-0.13404802994582382,-0.2528708934842475,-0.1029232870513826,-0.13466691758383786,0.10615706324445569,-0.3091869594304095,0.2319959675102572,0.3175054857515893,-0.044676780830602,-0.07635971112384633,0.0830045494885895,-0.19570898559776,-0.09044449198108243,0.06722899391166738,0.02948005472064842
14,0.13079252338189767,-0.13034334769392042,0.048977830076749836,-0.1922260607358712,-0.019991272830725895,0.10511833212309256,-0.09570037186862501,-0.07037605026561505,-0.05889493077977448,-0.13117034078218204,0.03030527176400588,0.004304501212266866,-0.046469682005167906,-0.021827424856509375,-0.13653000779667754,0.03728147445698385,0.07087266952542376,-0.18121664248589625,-0.03610012238371936,0.022401902665522694,0.00631752295894529,-0.05036330528751158,-0.03149599640585314,-0.2611465499899449,0.0006926177774992104,-0.016965036275243955,0.03000667959181351,0.1522963880978344,-0.06713421244586612,-0.015017038053111144,0.04252714057430967,-0.03590291291241103,-0.04339845209187079,0.382412733761423,-0.061544706941747976,0.11328432346185158,-0.09238110388801934,-0.022028849208862243,-0.0077948558027425945,-0.16210723133813204,0.008312382602496372,0.04698662523652705,0.03815713445271013,0.03946897344795112,-0.006440710164377056,-0.3008014206699275,-0.1286490462268558,0.20570131230762387,-0.2014099252672326,-0.0112741618484304,0.13894569447218016,0.045125049015361574,0.04824303398205058,0.19017866624899338,0.38960753379136165,-0.18686715320481162,-0.1524094945338177,0.03545270874665103,0.11315414326852412,-0.165290253636153,0.03876458933048642,0.03795989295191799,-0.04009515342729571,-0.04340381775316414
15,0.12808595092921943,-0.11110299252230559,0.04571158930794289,-0.21840305855512673,-0.03727210711230009,0.05696984004742294,-0.20279554400955524,-0.1136078324896731,-0.10170918843474885,-0.1671339905789916,-0.019286123862055082,0.03975541174606968,0.016708063284355895,-0.05780483684543464,-0.1959488047478827,0.05548412051399307,0.1310638964758519,-0.06422722827062062,-0.0075920548976584346,-0.0194726092417883,-0.03747432212582694,-0.020890760906690897,-0.07506495039029167,0.19371711915902193,-0.09851904268733905,-0.22010404098731556,0.11575751810312383,-0.20842396319526604,0.15399494531215016,-0.02385550563752291,-0.06047369651709518,-0.028460114854397693,0.18616184598828522,0.3772663319806162,-0.011500063677942034,0.17012050379830548,0.16677206595326613,-0.016621061922022076,0.025073570768730687,-0.23859827373345285,-0.11899509799389982,0.1292628399244107,0.025148932477092562,0.06782986076683598,-0.12012295664217582,0.13223789079545395,0.169746183213187,-0.24833914608883037,0.17877653425162543,-0.007486499347796702,-0.10590264860963916,-0.014291371533617472,-0.044225162131557104,-0.14699105515302824,-0.1551686075459761,0.04489136859424821,0.044821584839491294,-0.06823059301322518,-0.09833321114180568,0.06340223690316771,0.045878685949281565,0.022203663093726286,0.015822541565561385,0.021878641300787854
16,0.12620511970616952,-0.09681575129205588,-0.04676085726397145,0.21501945235739217,-0.049039024226688925,-0.09139559971431942,-0.1545719123110531,-0.002915687320598475,-0.14931503609723482,-0.027747194664519692,0.15068371183121343,-0.1387445332971105,-0.28627814487933745,-0.03272371534540233,-0.12659837281739958,-0.3503549377874682,-0.32202343078734463,0.0529434961918893,0.003938325653947694,0.10200005136280463,0.009025373567451117,0.026308275976686665,0.07360037359297482,0.013918891861723015,-0.05149490334036791,0.1924720905316084,0.37674473584638085,-0.20366373559869766,-0.018853309066666366,-0.03238371056291778,-0.1882933034947777,-0.09464161108500474,-0.3894501071258452,0.133667342714199,0.08803879255948627,-0.016335673311006944,-0.044904640757997674,-0.010602533738081843,-0.014590878652787149,0.05619654505827523,0.005327722536866392,0.0265255196662864,-0.0458148636160081,-0.0837978295394844,0.011703075786194528,-0.03857589149905559,0.019868037930605303,-0.049588245632424074,0.10155971007968453,0.03391507238952411,0.011158585734808546,-0.004718185915738388,0.029580322499599826,0.036036123911376935,-0.009474764830602875,0.010902463418377709,-0.0287027269140175,0.0020655707536986756,-0.013705464213762397,0.0005152630116124421,-0.0006285931526327504,0.0070613275405853534,-0.0015556577400169871,0.010647725495635453
17,0.1279384069432625,-0.11816484916764057,-0.07500021372377194,0.2644342989270737,0.02080256056927374,-0.09266333410808623,-0.031163689720487813,-0.020859031883376237,-0.08636546268276779,-0.10003036420808577,-0.042354804981362904,0.04596522516041357,0.06451608815728846,-0.06963823560309537,-0.12700016776892747,-0.12499784750243509,-0.08679883686065212,-0.059698881095682416,-0.031266411074894356,0.0955419123386548,-0.004568584024676137,0.0043686460639920655,0.022361482000570553,-0.10164866215674462,0.17823536511901528,0.09191591054257231,-0.09180601190673776,-0.11626249756379206,0.22757262396152733,0.05599219096248166,0.19225699383994238,0.10261846572021886,0.09714628237776676,-0.07737889266591745,0.0062169766685803846,0.07604180157461785,0.08652495571743893,-0.059502679129589724,0.02107573095891897,-0.20529065294454568,-0.06059238254381888,0.08081533828757126,-0.01613712327695474,-0.01489175111190599,0.14863959917352473,0.2054759661675507,-0.1070343670577059,0.2036537202003019,-0.18672201802984303,-0.09522027412639668,0.0349488605319488,0.11124627800167113,0.06189736609595134,-0.3792834288561817,0.030278592413360256,-0.18487925728831908,0.2742275452875855,0.05563786228153968,0.2953077788448716,0.11132313023831919,0.05254983000842943,-0.018842124566375615,-0.015619691956711888,-0.023208664349385618
18,0.1292775724780984,-0.1305739429132226,-0.06029347953252303,0.21144728524708847,0.05737445707043693,-0.06617958791228314,0.09534185191756911,-0.00744073225977445,-0.013349901623966945,-0.11183342925027247,-0.09015006419317909,0.08544305079470327,0.17977265465900005,-0.07309114266807465,-0.15818768321955795,-0.062251459275078386,0.08425883405415244,-0.028961002333677877,0.09403680384179441,-0.04674734546148675,-0.03038802851530667,-0.031550282708963075,-0.03007754711157731,-0.10241872321543521,0.064526998059665,-0.06468347360523796,-0.24007329663875807,0.003120311463353981,0.06776312025779974,-0.005061201217819722,0.020395832733626038,-0.027643580892206948,-0.2032664120016073,-0.06554213691360962,0.09307442485910827,-0.04081896952262583,0.049777613363341654,0.04033810904997591,0.04407383607425265,-0.14030487210796777,-0.4025621777278508,0.09962927111541975,-0.12159685839899514,-0.19823007353849725,0.12233522250306679,0.03420475715525324,-0.16628540089748906,0.05601523439573668,0.015443684728071831,0.1579985536230895,-0.15121274266772472,-8.251319593111615e-05,-0.061825151323110034,0.1214936515985501,-0.09964934781790293,0.07771659576040743,-0.35537393551953966,-0.07483078035974056,-0.3301787692512945,-0.1361969852274828,-0.057055760525325364,-0.03599243108688664,0.025410443834796015,0.019917533053286376
19,0.13076139104500853,-0.14840265645086467,-0.0029028735013566435,0.014643730384122276,0.04586935817418228,-0.037187509262961715,0.24222207120495484,0.08427406414166597,0.11641766654613273,0.03161163135993499,0.030430837376508563,-0.024859763366121834,0.020336228042461296,0.018400902112385827,-0.10834415726583477,-0.015557094158899387,0.10380733887852672,-0.03986772561440802,0.1601654788095081,-0.09090545009724982,-0.06817601426883743,0.03519826248446235,-0.011744770532190342,0.25582741205347237,-0.007483911725055775,0.10657044147111303,-0.008645996847429671,0.0525839762631501,-0.090760040799371,-0.044922945679874746,-0.09531458952909756,-0.007684876445092664,-0.19482843959229984,-0.04943887931504499,0.1967500456136351,0.01686373394244816,0.16430411989568877,-0.03112147207093363,0.011146281017473995,-0.126362424820007,-0.19797181835704783,0.0531689458487595,0.1308298248733667,0.2947366427444441,-0.14229643463401803,0.03074351765064133,0.08824180954194111,0.09234433045090798,-0.20803681629548051,-0.20400407485733477,-0.08668405809974869,-0.18095885094337733,-0.039039155587463334,0.3216470110276579,0.09227594196596775,0.13891930403683528,0.1642797415681808,0.01878996333779208,0.16349503943369198,0.2839175050241384,0.06730586849796942,0.057468766078656225,-0.05355092500637762,-0.029309755209428995
20,0.13137692848126956,-0.15231671654428536,0.021439165580337517,-0.11025300809605268,0.014832444266578664,-0.06579790426199045,0.15437069207192855,0.07571635167782832,0.08441042050360519,0.09347881604695149,0.05671717890543282,-0.0651888802715921,-0.06481746828009616,0.046109839010918335,-0.06131088809558374,0.01873295819543082,0.01978130511015941,-0.20345293448950552,0.0782676581862918,0.027236415516815517,-0.04560741359666093,0.011229347672375711,0.04170259421256563,0.08478511665142369,-0.022383783758332148,0.11771429929355125,0.052320519306887484,-0.00579687640510726,-0.010200231608565563,0.010924065244501919,0.04777582390555194,0.014531659568828209,-0.009288405069414862,-0.2804211259390553,0.006122384617648496,-0.07078067812906116,0.023587534669886542,-0.04067914983501549,0.05288122950738203,-0.24224825831055308,0.036104389050813424,0.15633562152268243,0.10286250206665279,0.14558785130824298,-0.07152136702871321,-0.00901627910037768,0.15484713299481617,-0.08620480426022056,0.1889219809455882,0.14779648320013747,0.10100532539956836,0.08334795603814119,0.03520226069916675,-0.04819494824234868,-0.005218025770629221,-0.06599106476877124,0.04182385244228648,0.09121074113681293,0.12364163076681373,-0.5492675503580885,-0.17465023047848016,-0.12525829255719828,0.3088258120101398,0.08111916583940021
21,0.1316157868024151,-0.1489231440685245,0.02975206334754948,-0.16354799211329865,-0.0033586025605981916,-0.0932006005883194,0.05990230593721266,0.03399105989618557,0.03678448978925259,0.07622981116398014,0.01208398789625349,-0.042019288135318744,-0.057750492952732047,0.0253454690873382,-0.04959146571691077,0.020563906383415792,0.0188772743001151,-0.264656357028849,0.040353334417071306,0.058424303972108266,-0.05792873740203005,-0.01750596404402915,0.02571761666540492,-0.14493802457934177,-0.08588302797707152,-0.015819216145201473,0.04134125760675736,-0.006864754031477571,-0.013169450451029241,0.011643883936526059,0.04297381989239894,0.03421172069648365,-0.03767031327068779,-0.29335639430640964,0.03741965106567284,-0.09221061083153727,0.045292748093233866,0.006106392180411174,0.011231605138415453,-0.05224579084074088,0.11069310740128432,0.053111074412843705,0.0038361827308687323,-0.006683916927032962,-0.03702521108080401,-0.14022207735417722,0.08890521995614876,-0.029218948098165925,0.16251062121155802,0.07918174368585357,-0.04260201855550651,0.06741786596185075,0.023834383520150743,-0.18369521410804154,0.03853594239571731,-0.06685200129824888,-0.0186669158999839,-0.0972795355407427,-0.1749298597473168,0.1344107847275458,0.05398809270120859,0.05424290269983549,-0.6887884175641892,-0.15712918662951944
22,0.130694868020944,-0.14390892675178427,0.035313785864422624,-0.19664578627288185,-0.024369707410665353,-0.11534673249088284,-0.02866100482329493,-0.004715077535400451,-0.01105553162436037,0.04321356039565931,-0.03204290946076501,-0.010731807736370984,-0.026554065766958235,0.0029040581415683275,-0.029856754185284162,0.002336691114463954,0.02770701159996458,-0.23917218854139188,0.05122425897969815,0.03945884387776959,-0.05580102529557274,-0.03146653973740826,0.0062980191233345945,-0.22228524914707265,-0.11632857408565656,-0.09563906250360799,0.07154792524432207,-0.02052841485396187,0.01197480586287486,0.0008007631153067116,0.025101813841402087,0.057136797983617066,-0.025247194951409303,-0.1976990629395146,0.07561161524022517,-0.05824853298632356,0.05692687252643337,0.011400119127699351,0.00012852755910494965,0.18338546836562233,0.04888893831072849,-0.0763972338924242,-0.030425299248126116,0.014160304033806647,0.04349087462298139,-0.0500133995031673,-0.006406757983465156,0.05873558358467997,0.03558521757873523,0.039334199689895,0.0012736677284276576,0.04147192952238091,0.019994679142603274,-0.07797010433329206,0.08893753513813253,-0.0685306504702114,-0.058351118745577205,-0.08769922205581493,-0.1518841902717876,0.42753341267102773,0.21110387453670115,0.11818530316284097,0.572361764677263,0.1583439218360286
23,0.1282617769133611,-0.13322277848482264,0.03846993657073384,-0.21790463190699472,-0.047122225474988996,-0.12972156933643886,-0.13742623640852522,-0.0575995726238619,-0.06757290383829283,-0.008733184420067666,-0.08526422694525777,0.043081030787824236,0.018330087937676265,-0.030003643777380684,-0.007939324744210441,-0.019552569891131646,0.05072049720343991,-0.1424609127840461,0.10347542851940654,-0.04386203905964858,-0.04079297730507532,-0.0368951019040248,-0.03136728612691812,-0.11583405704341129,-0.15326502593826385,-0.16265410418214307,0.1688088966245044,-0.07000296649423196,0.06997332282477749,0.0009229344117642931,0.04684178793444484,0.11167481036995971,0.013648126975812302,-0.01341022049799269,0.08734468769773543,-0.046334946541346365,0.06457791042728003,0.06783216993385255,-0.049638215174453645,0.4533753156198501,-0.14499585947408838,-0.2084512147849895,-0.02485667648509483,0.04912585387235696,0.14273934354978474,0.3107192335039464,-0.10183379412245996,0.08049168438768262,-0.13494334353325624,0.00796169913434916,0.06154545158696709,-0.0484373494180787,-0.01207448754051265,0.1553802676187374,-0.13614603501023634,0.15158154302444382,0.06158236796708176,0.13418020632526928,0.21216257578476397,-0.24074370789818178,-0.1504874027783605,-0.113732509294281,-0.1500080803577607,-0.0551508338784112
24,0.11455750391758995,-0.10961582934310324,-0.04629550633869981,0.17465386935991195,0.018416957819886857,-0.21262252969606432,-0.0038844129268203187,-0.0470377841177316,-0.11484708380995913,-0.4510982524114895,0.160358824348773,0.07890854281083974,-0.22398399344636064,0.17154004615208965,0.6036578801001822,0.25487534662051936,0.03700461452561307,-0.21802461319505495,-0.0014211272530026131,0.04255001002647228,0.041738465999872076,0.014379705340056115,-0.038815183480824134,0.19307977518961236,-0.034751482431331526,-0.08222653727254299,-0.04557467610502639,0.09558464931885594,-0.05208792926219913,-0.00964063006599001,-0.016184034387773508,-0.02333811909125473,-0.07768218328616278,0.026666463839540286,0.06216713200240841,0.016829822949790522,0.02801177256266541,0.020299704880868276,-0.017574575795117547,-0.02761898386283522,-0.01405343587330754,0.02168465360091829,-0.02160065656072356,-0.06310449193617819,0.03181681728511425,0.008660601918146514,-0.027040341473375536,-0.009846953185527009,0.008551680225489713,0.00551610130895,0.03199944806084851,0.008808868181259966,0.004922893531486595,-0.026093618392262194,0.002243230009311342,-0.00986795846689275,0.011619640952107338,-0.0013775927615502573,0.01216563209615773,0.008004129811148855,0.00676491847362487,-0.0010526096171317618,0.0028504583020278196,-0.0009627032067962976
25,0.12551686659248285,-0.11673058911899699,-0.06391484030346196,0.21981195116995345,0.01186027326752818,-0.20510385466677064,0.037030542907435016,-0.020976775155927895,-0.05205587320619242,-0.27805088515273796,0.10378961484155004,0.09423699778185507,0.010811010963340013,0.0022141077043166587,-0.03356432028779077,-0.017798377387447162,0.02176343336362313,0.17487987032863062,-0.02398707437518202,-0.06582244527481909,-0.06389298295917228,-0.03600525632126739,0.08828017119945633,-0.24296652713162123,0.03410844655979933,0.09253375085858681,0.11147305879253674,-0.19017792168915756,0.05921116837815937,0.0013496520477766921,-0.006655165877541891,0.032245846816865584,0.40081671454579315,-0.0997009065060944,-0.24507039648970505,-0.09926938189619824,-0.22740856213788274,-0.026293966776306694,0.0671028480322043,0.07455375027050246,0.04611684994187651,-0.07626426397655184,0.13567769960948337,0.34155409921571034,-0.16793912570082556,-0.11252435221204361,0.10246584325308203,0.04863462985371446,-0.02087971956559522,-0.009481297844691323,-0.21490125657114492,-0.07285495601361695,-0.06123618109020282,0.15059086241539,-0.017459116753864773,0.05209256903397503,-0.09756437813247974,0.003814603634180014,-0.09982054965187047,-0.02350512816498038,-0.018928004743379884,0.01584283638604337,-0.005977958697912636,0.0018421177426986013
26,0.12632412628749837,-0.12374226731841674,-0.060020125303622225,0.16220073652384304,0.03801582202155199,-0.18316787512092433,0.167439842677419,0.0044512503062427945,0.05320901603715814,-0.1809305855531259,0.026920045556103864,0.0881927676420991,0.147041427957689,-0.028668385251491083,-0.21555834516481792,0.04638447351279665,0.21835625206091733,0.28769273264960865,0.008154761138377792,-0.19990610047223878,-0.02413533200804091,-0.050317619492970755,-0.03257622050275367,-0.1806519253105917,-0.11410109638770888,-0.04577241705484866,0.0671670316826728,0.13106014149810374,-0.17020551701721717,-0.024311478416589566,-0.11676785768781162,-0.01103638023218352,0.03401421256661589,-0.02304788433914618,0.029056195531395823,0.04451946287576198,0.11290034563812852,0.06287014230453199,-0.08643885012783235,0.07194178306172522,0.11100947820394264,0.03407478958152799,-0.09322912706504105,-0.31144780472210276,-0.047144582030356846,-0.06848254346021455,0.04129001880652116,-0.27519773909792294,0.1362644965153218,-0.03592686589965324,0.38909975785356793,0.05128928617754257,0.07444567636953885,0.014573099458663419,0.04689064402591382,0.020565085604622682,0.17837487410499378,0.003821023980034267,0.1417463908001803,0.02738038665253449,0.021803463780869753,0.020694614364819897,-0.0008298420616598134,0.0010989239550625585
27,0.12709003739678912,-0.1416806993066408,-0.01634118475769743,0.0004757930880331854,0.04323100969436133,-0.1624225755967686,0.26254436574202134,0.08720168259162828,0.14007949051070678,0.02111546435358365,0.09728374940903668,-0.03977942918818569,-0.00839771858808647,0.031283801259860765,-0.1656158956941629,0.0895920771147645,0.08435967179817136,0.2174196319396539,-0.12640611311059619,-0.06849259671862529,0.06978175691780689,0.001250651496559313,-0.08566696566809995,0.21070980968798453,-0.07316275297669857,-0.06931153332462914,0.12200798108995062,0.1499770174315378,-0.06205197595899535,0.06552641609792466,0.08992349577403802,0.05359742035989376,-0.1495006557637271,0.21648816719128694,0.04572760956681453,0.10499615398040799,0.0822848505548247,-0.0032740713481864414,-0.007287648103528209,0.11239125740655342,0.34201359476262594,-0.17052292742966588,0.028270169532802147,0.09009725867866164,0.12042414113251196,0.07889031781100653,-0.049540993495654384,0.18924357059620114,-0.09417088973345046,0.03136513279021643,-0.30261301800301343,0.012036086241320975,-0.017690575729196523,-0.3021295960221701,-0.05462521581988136,-0.15074817380966737,-0.1877120899712001,0.012358053884236098,-0.10307392799120618,-0.09281342113189876,-0.030570757230019285,-0.04723846080019323,0.012739433549803392,0.014421389415870567
28,0.12393394468652982,-0.1438096118786318,0.013179678574253891,-0.10886274887651494,0.016419523320871654,-0.1855925592396308,0.20937836270316038,0.11432185402655981,0.1300513950532661,0.18702861958916997,0.11235683903442047,-0.1053953569474169,-0.11007186943842547,0.068298707079217,-0.03782032242695817,0.11809531687409797,-0.087261940264587,0.08873054980950093,-0.28758445572461433,0.13288006970056393,0.10731558145644088,-0.011627176874045603,-0.016733212156051745,0.21034029321388537,0.11196997995541648,-0.03957831035766924,0.049848250824015755,-0.09067823777777613,0.15714372103663715,0.076813057136691,0.22158909519736492,0.028657004230342894,0.13618026582203796,0.1306577206864352,-0.1779360875409146,-0.029342151049942113,-0.2121663560395839,-0.005082686718229701,0.0025406515782657926,-0.019473786188787447,-0.20341989127358687,0.030952131021627922,-0.08191691530680284,-0.05545342899019804,0.14271268935384734,0.02899761838549103,-0.09712745076470979,0.01789480102988708,0.066875958366011,0.25042131450262917,0.27152672743520967,0.11314172130823609,-0.009450625738102805,0.2455693412636192,0.0024125169160869875,0.14718924949515771,0.07632504366434346,-0.04452015627636282,-0.028602577701211506,0.1645690460190585,0.054769621599717044,0.05110662150842872,-0.029350053930663783,-0.02385704440489314
29,0.12408221166844571,-0.1392523723048284,0.017553848279830937,-0.1643985801491094,-0.015367070658288478,-0.26007583769368314,0.06040661929854501,0.05210419696307539,0.06195528164761125,0.2164952311558644,-0.0108702765392662,-0.031366911540156146,-0.03014167002480035,0.04142434124116515,0.10067228247504349,0.050081672843132204,-0.14755417975201726,0.091532311795122,-0.2815155803625221,0.18871770386457215,0.049775228770382124,-0.007887262722249589,0.024672189639650177,-0.14849760726158423,0.06368923640751348,-0.1192638469696694,-0.22481594501097035,-0.10997430660345392,0.030407713778569614,-0.0773225176637992,-0.15419649630751697,-0.10233573830494305,-0.005161191757981973,0.01876624139761837,0.03969830803506899,-0.011525909660706768,-0.010801518296192303,0.01892677151155156,0.0013728583968559476,0.0656321099123551,-0.20526408720267503,-0.018263975763284708,-0.02397816291393851,-0.1653419771957357,-0.20729349956041773,-0.12615298128695185,0.013967059900704522,-0.21592539274853345,-0.11551579618920868,-0.44093728258236387,-0.15774278804762698,-0.17369928078710345,-0.006279321270652449,-0.13603117563036612,0.033045925282709346,-0.10030961363728087,-0.042225667626998475,0.04032542768692672,0.06993718128944258,-0.1272804957479516,-0.04553166868706798,-0.03466409554176934,0.03038356019920757,0.009918244335340554
30,0.12132231623035619,-0.11951381729483915,0.01679606059230712,-0.19414324710925254,-0.06017799254405751,-0.28762272380292864,-0.1471037146567,-0.03262527135128485,-0.04783647254209335,0.15243292896373836,-0.1637265688061255,0.08482956943820423,0.11744052481677517,-0.0350779451273598,0.2340462914865589,-0.08850668180035198,-0.1143442823541826,0.21076094301083081,-0.007814598829436928,-0.002409864770969175,0.01599877281233708,0.033107962557632736,0.0565239882927433,-0.1436098017829096,0.1477983756594022,0.12033645177233412,-0.24732794235176161,0.025909231131114818,-0.14250661634481943,-0.12606563597573098,-0.32227639154166,-0.1235784017803282,0.046096607574409074,0.10286753347404255,0.07511889093077674,0.1320173366220273,0.16469867932466728,-0.020412913350577877,-0.004813668383667652,-0.14955267582832316,0.2274573996676004,0.05960750498406369,0.06251125259187357,0.15225798548368052,0.110738951727005,0.1371277972444214,0.01096031554906577,0.1613331900557695,0.07445331860489181,0.29537703158088074,0.030105446288225812,0.09576704580255356,-0.0198708070744973,0.09249304949603884,-0.05391248503053095,0.0813054930736916,0.03765411339673043,0.009327654689364535,-0.01328287572467074,0.034643277920117954,0.006077448615320488,0.01877964945513037,-0.0256501507117409,0.0026088308012830186
31,0.11702809432793222,-0.11107708375570745,0.031865670796529404,-0.2201463026091028,-0.08074282238952948,-0.23490512919077408,-0.2465173382468816,-0.08378182488308558,-0.1198275456089906,0.05014037234582577,-0.22274860732685414,0.10675449296597112,0.17120637742197403,-0.08638530325537491,0.17189754365045465,-0.1335775547777877,-0.005044036133115953,0.2265846346104224,0.24491222724921094,-0.2121136236490223,0.08577920446804022,0.041751545155272574,0.0005622731846621765,0.28138017954977407,0.016226668780884496,0.1934003897684301,0.14019027694999767,0.1713911458201189,0.024352297224927825,0.1581718156718417,0.31769689294367065,0.10660220591983965,-0.09895745352793357,-0.06231541426113024,-0.13352270709130648,-0.07209638653509359,-0.1918164009988377,-0.021226620914767652,0.016687441202265216,-0.07114907058849429,-0.06119515990458839,0.024609986793185913,-0.026520351384486503,-0.107594746206189,-0.07693915535354559,-0.15140785178160795,-0.0032894866241764686,-0.06829449522357989,-0.02270532009577343,-0.13899956677679243,-0.014169760572008944,-0.041717616275287334,0.0186961208099215,-0.05210208216103154,0.04579468907403172,-0.059028126047339605,-0.030987153561707212,-0.0344555546566327,-0.0353493762032496,0.015551970614647866,0.008932922014361355,0.008373440822894467,0.00694263142091775,-0.005448858663291395
32,0.11046418910413668,0.10964669528941419,0.2405683800300433,0.04895861965535795,0.2054015881601149,-0.06636207091356659,-0.14708110935516408,0.13423385306007604,0.15694895518483137,-0.08459572383007842,0.012045013300509628,-0.19096574143342598,0.0428364311124242,-0.3268169327009257,0.0068765230472285135,0.20989925451913002,-0.017173847723637767,0.09894439379101828,0.2464904087321697,0.21591276553386915,-0.08445558349136445,0.04063598929570755,0.32048607633865767,0.0034859666163882287,0.2322210155669669,-0.2157888862219216,0.10967565634795545,-0.0995406271478235,-0.2639730556017665,0.028495105463568163,0.16702375941792924,-0.11367951466788109,0.021375774276543136,-0.007263967665097654,0.14062222301173244,0.0341217052704669,-0.03726659958216169,-0.017630111837253076,-0.21846549895053158,-0.058048118677947146,-0.01562136252391022,-0.09594706175019621,0.05381771017137717,0.033190996069042154,-0.034541347533006916,0.006252143515080327,-0.15135814251841423,0.005379418228223708,0.1159851017015453,-0.06843084680510905,0.001328775112697994,0.06942082615311133,-0.09879769361389258,0.0009542013277187289,0.0023654794411398367,-0.02354250472476157,-0.005999482067418911,0.00715312081720974,0.004677089327384781,-0.002075970828979555,-0.004385099163274897,-0.008122160324516625,-0.0015856577070316458,0.007435686763133609
33,0.11435691722887874,0.11916136519174916,0.2309744979127469,0.030128135319877732,0.20008333904320622,-0.050684154105920885,-0.10922379307409985,0.21829475070545032,0.04255820345000948,-0.024890208231911893,0.1453637068545175,-0.09631730798787126,0.09722425456626861,-0.29812252288401614,0.021102534485169896,0.14795674500827397,-0.11352502271079244,-0.0729767245820599,0.026161238198335907,-0.12410267888847336,0.1521171493730954,0.12330957195201295,0.04987391281061425,-0.030266352665294143,0.011614388427988925,-0.03442790612979019,0.006154345810651329,0.05689769839766605,0.12356353637015433,-0.0648880267980304,-0.16925787608626552,0.22025371173502506,-0.057853226973324595,0.005650333947638503,-0.1337475549161507,0.06915748950130164,-0.004353915311767806,0.21995085084956106,0.3970778885352463,0.03633426539399828,0.005110640409662512,0.07148040713634411,-0.011179386889081211,-0.11206270014154585,0.11110192076353863,-0.04180636963557421,0.3581208250695233,0.0286827493238154,-0.21694661077151287,0.09412846614326581,0.024530234931111977,-0.1103368824520505,0.14318604194752577,-0.014708851676212664,-0.015142027815466474,0.03365726955915488,-0.0007312114845535733,-0.014956348778865994,-0.0017513355816998755,-0.0012564741809931237,0.005418139676564571,-0.00215338329443326,0.002367762850027943,-0.004767991255537465
34,0.12156910322288736,0.12587050914361664,0.16663533537892522,-0.004910390460324917,0.16428175387032481,-0.01862488241733084,-0.051954659562858434,0.22310102013486016,-0.1371220055174402,0.03234718183871464,0.25887014970288835,0.025870584526151794,0.16565123474283439,-0.11047550528173813,0.008536060715535176,-0.010439366609998585,-0.1281111895789056,-0.1314265680584213,-0.1500199308183309,-0.3402443657854853,0.1534164297454885,0.11162250317406193,-0.058705897514398614,-0.009494250662888951,-0.23516396060705197,0.09824607202114388,-0.08922814266408483,0.0733574503732783,0.2201007454327302,-0.07753017838154842,-0.050801106500548435,-0.057747357581228786,-0.002888532852412515,-0.04243829064711477,0.03017291721077145,0.03105753668121332,-0.02469683090869329,-0.1549686652498845,-0.10994933708628117,-0.005587930971492558,0.04925382430067306,0.0029298889398596054,-0.06494921599656452,0.1584218866638262,-0.16645193980209302,0.06337240191988604,-0.4640194135894036,-0.08241086166865685,0.1951747014185268,-0.07222288452533593,-0.026039946163949397,0.07003726764235187,-0.06816137784419299,0.01136526167274994,0.055906682692245135,0.015227495747345665,0.02882585172680193,0.016354683835472686,0.0022190750880108356,0.004343961461645868,-0.00010072285890727617,0.007809773934299734,-0.006583731468891962,-0.0006525878168099353
35,0.12805593334098592,0.13985140695552994,0.046525563939667294,-0.048697288995754866,0.1271495664722864,-0.0012283533411190893,-0.002591375913571046,0.1481016260255028,-0.26109568612053746,0.03232609597390563,0.209306543855806,-0.017822803948875116,0.2303677634655983,0.13193638153299636,0.028279432373938974,-0.08465873470159012,-0.02070003467892936,-0.03675624433955812,-0.10987374876795493,-0.08725345594610183,-0.0771664908858909,-0.16177284417420668,0.07880533945938627,0.009033753963921289,-0.15020678476547578,0.0951901051082191,-0.08571517944735033,-0.05254612677324669,-0.03922538868905377,0.03996067945756255,0.20450412045539296,-0.2645609296895619,0.07606942045606824,0.0838716175263893,0.11994702943902194,-0.14593644525653277,0.03269098750917482,-0.08413660287773364,-0.3546349918999112,-0.004618844587671117,-0.05586172341628967,-0.038653924424245506,0.13480497752315862,-0.16087110504659236,0.17208442322647227,-0.05170619842756063,0.44903008211840445,0.1279658527001552,-0.12195356272260498,0.005599927152607764,0.0016803018353516996,0.020323672651264654,-0.0014767114497308866,0.030865826919394504,-0.1015878917861649,-0.0487778952333887,-0.0209006821647008,-0.03142408388056111,-0.00423941706980056,0.002371802451125893,-0.027034742860540667,0.019184992712080476,0.009422644566580263,0.006444349138003902
36,0.1247829147889755,0.14378433266288176,-0.06343971403799113,-0.0804031666398806,0.12686904572744315,0.014730931330503938,0.050787564531762946,0.056144628561182894,-0.2736325980219473,0.02061639016093252,0.13565412299667692,-0.14198099816407558,0.24067681612626352,0.1913821899673477,0.05043900143684276,-0.162797035829093,0.15090337512890792,0.023499893995072466,0.017063247102501088,0.20897252569378996,-0.031179955052974356,-0.3485179200835724,0.13465547963409769,0.07963305070262355,-0.009684112991427782,-0.005741869783115611,-0.06065652337219867,-0.10493969525798025,-0.19068654050060072,0.22875446268718877,-0.1149159299675789,0.2715381374293826,-0.030715110532079325,0.08018301725498649,-0.04249730260100665,-0.08801332598187922,0.0019036733554196883,0.20539796554429834,0.2239001101668206,-0.014825310190327401,0.023270660565259185,0.009867979132717725,0.10760366214352025,-0.016452681610178155,-0.11503600597927723,0.05203141845622425,-0.23613144035192823,0.005104472854653987,0.0646019905613064,0.03696303254836035,0.017718972556376826,-0.08230732294373605,0.01774969239373425,-0.12653035807802823,0.15961778540906335,0.165689170211767,0.042311015794826934,0.09314664082338708,-0.03322892866175322,-0.012705102615121477,0.04187179480176534,-0.0013335951515551503,0.004722222679368171,-0.006743297555856384
37,0.12421138297670727,0.14822240095782668,-0.12936338823381618,-0.0746167362944096,0.1829173716557219,-0.0020258249151869257,0.07714731601330087,-0.09519351054600068,-0.15528870142321752,0.036849078237129615,0.049309777214428065,-0.1275219129186056,0.07264377318371971,0.03990113056149595,0.0578222906560617,-0.11129380941414321,0.19752000754991286,0.005700716470116374,0.04121575901961535,0.16212682169324097,0.157604646300327,-0.019718613919184644,-0.023413775550620318,-0.019713705451557133,0.12481594124549235,-0.06669725749530449,0.08472121955333124,0.050986978944657105,0.06587227588848049,0.15232170094141195,-0.17803832521992807,0.09516687334248602,-0.03341240524493321,-0.14063338693768224,-0.028110427972303252,0.2691461375777581,-0.03586338267992579,-0.1983954338125707,-0.02078664191513668,-0.006247931664207618,-0.0015543344165414464,-0.09225732465891612,-0.2574986710719474,0.11132462436638746,-0.007607157502878881,-0.036787304395358746,0.045972589198937486,-0.11921219863380803,-0.06509572516119214,0.008244389825519699,-0.026916884193436214,0.11040007117704287,0.02177452301912995,0.248430034643975,-0.27561716138043757,-0.38027707386814275,-0.0574162288318734,-0.2580957523480294,0.1385611460894015,0.028933298235806593,-0.04166228091468592,-0.031886897126913755,-0.024885701120283904,0.016375240239559885
38,0.11935947257505676,0.140703162162805,-0.16427687534610028,-0.041617370003603875,0.23001505695519414,-0.019917764449478913,0.08326069067105211,-0.21118124734663887,-0.06454264037562456,0.06549581641322641,-0.00098376257240882,-0.09183713461312569,-0.06729403221766642,-0.08828524365763483,0.06019115465896364,-0.09211401249907528,0.2125293545058429,0.013616011418515145,0.009424387487819933,0.06643816307022864,0.14247932770716715,0.26362345170696977,-0.0760564025106806,-0.07948354000780128,0.01822267497139798,-0.031494057777532156,0.05674071984279187,0.026426339516843103,0.055108465919077074,0.08870120725627785,0.0024814029579394575,-0.15681256424787504,-0.014361885338557465,-0.07558201083013544,-0.13074758227139133,0.19551265170499504,0.027792623243903244,-0.08743769035366877,-0.09490373652709252,0.05837782964493281,-0.04251318293305927,0.12884608447412663,-0.011705729284040286,0.09122028828660056,0.28403042639211706,-0.0811180614786809,0.09934177723440415,0.0405758254396182,0.11164457875079303,-0.20175434280115592,-0.016629224232849113,-0.009537982998484955,0.05332879018178324,-0.09257119850110217,0.16419893714882058,0.3116174510865158,0.0447596973992489,0.39471098447092234,-0.19623934097192083,-0.043000899068852794,0.04942680319656242,0.030002895023714,0.007335372843865595,-0.01739027092715206
39,0.11905546433318573,0.1252080652187238,-0.1756223163615759,-0.04335528922111292,0.21960779982084663,-0.014956735123839868,0.04813968696744388,-0.2601499991303356,0.0010437368860974456,0.08143123450627476,0.010698474909087116,-0.027822180449582998,-0.1658893076164729,-0.16197903092173357,0.056669267098632556,-0.06672603635443038,0.14471294922804717,0.03210281654553836,-0.09235096778505762,-0.006711274802792155,-0.10690436434630325,0.3648899158955878,0.058093196901864014,-0.02094242179766483,-0.2545379430195145,0.10523142357668658,-0.15675733543245385,-0.17352635486526716,-0.12499927492639748,-0.13756840263434802,0.21159960077948511,-0.015839228539018424,-0.08423458757419683,0.04823657814495147,-0.21161122721737738,-0.07128902390862482,0.10322487193566768,0.32321132977199474,-0.04108934287709262,-0.018792817545669027,-0.012484216872368236,-0.03443030751773091,0.109912739240825,-0.0638015019808178,-0.24200688115478164,0.09593494654645215,-0.07361537191534691,0.03983572908232451,-0.07466808262896966,0.15600407601723093,0.02190344294767882,-0.02515914104702639,-0.04034706613909317,0.01181505377962598,-0.053476596360375134,-0.13732903504380126,-0.008388401707738413,-0.17024008455874756,0.08576705789847265,0.028166234065028495,-0.011490184151965947,-0.014289974229865526,0.011354769258557468,-0.009414812732455799
40,0.10934109672395072,0.10604643293796959,0.28606007330636046,0.06357451537238412,0.18923572757510565,-0.05006499464058949,-0.11230461158530514,0.03183792876246583,0.20061113751164483,-0.07759454622255811,-0.17518467831059942,-0.09653993433470827,-0.12978330525997736,-0.010621906260936322,0.038521433155889975,-0.03068332370409688,0.10064724945625493,0.11563476976837526,0.02175126747780803,0.24418951304930137,-0.1756406657675303,-0.1973730112882957,-0.213236636222552,-0.022314675359138038,-0.15032858476692917,0.15969803961214368,-0.06169451527950311,0.10736707561640763,0.11824750714828708,0.09272629265391868,0.0014117350967804694,-0.10890322204985761,-0.0061643585868267625,0.07636159197846393,-0.19361926159851023,-0.27586930398835735,0.21940264218084815,-0.2928895731631222,-0.022241583649343578,0.10779030162451225,0.038622099746622826,0.2001260631339889,-0.1658337005687024,0.04951886303684058,-0.06997225964801854,0.03927909928837242,-0.053123507398658454,-0.05877303784547973,-0.1050893606489086,0.12163919138025578,-0.05441360365543404,-0.12463744397089967,0.20262093532125447,0.002488486102046661,0.014037812992556742,0.0070762835419321685,0.019541700249185903,-0.010781498421359094,0.001927756059879382,-0.00563668024608982,0.004819727985751993,0.0045181633617219635,0.004387075864252583,-0.011150487072979902
41,0.11581995184204151,0.11655116173433121,0.27752257627318166,0.052472228553111185,0.1268373207421025,-0.01631945234764857,-0.03976569630354651,0.07331915319191314,0.05854666885095668,0.039125189756754504,-0.07885992015434756,0.17968259982126533,-0.1832934149309973,0.01586778324499281,0.0052352925244094,-0.1298060140435333,0.06381807945784419,-0.02412964955433634,-0.04503776021133716,-0.02074484308809494,-0.006872585386022721,-0.04938555172524717,-0.47711361560988863,-0.0012444451103826096,0.12965252482026943,0.05345182604639683,0.006604464690312339,-0.08819365696536771,-0.14896445671241276,0.013301806437867929,-0.1361292530085407,0.2845947511849609,-0.009681146328383083,-0.003494968381897709,-0.06795112431985259,-0.06934644405463883,-0.021753007750558565,0.11356721318426695,-0.10379717941835237,-0.026245291124086856,-0.06361113964126927,-0.024323565896051766,0.23259358549529185,-0.03847786041849435,0.09640055829533042,-0.044278649863119954,0.05429389958060887,0.02436160495648583,0.060263694772862864,-0.17419779084720435,0.05283979792499757,0.2913585034988625,-0.3830336716607625,0.0030237532565232164,-0.06205861149725059,-0.05644810373772276,-0.05225744825743614,0.02831795850016923,0.006601672343387356,0.013960840216626455,-0.0014159012375394298,0.010155924256928073,-0.002786923242568601,0.02065662564451979
42,0.12468337854457291,0.12887529123182764,0.1885269426247961,0.027974436052267945,-0.00430812950142888,0.013505455372029426,0.051960080893209505,0.07605541311641886,-0.13769932170292137,0.12344149881892315,0.03308906642929713,0.37074344361099365,-0.14345769420477758,0.03199820798012654,-0.021810684237478947,-0.08890181204199273,0.026698627522643386,-0.05814233873702611,-0.07644881142475268,-0.09396910344486421,-0.08620464456010414,0.11854257098995036,-0.2245152600997268,-0.0051590873338888885,0.26432167862534844,-0.11076032348925521,0.09311146732362777,-0.10207202947359348,-0.21701441768353621,0.09970661101929362,0.07410849364977504,-0.0629740509920159,0.08423672147153471,-0.0549162640944858,0.1143531535599745,0.0818572418246554,-0.04792599505308631,0.06484738390382305,-0.03729766181422643,-0.11690882791434867,-0.00470256133712476,-0.1746616814208071,-0.16874628136654563,-0.005507271613483834,-0.08704628371245432,0.004251255053926019,-0.03463154893329345,0.04734774527811624,0.05770027596033033,0.12329433696378218,-0.05499202463123562,-0.3048626877091102,0.4635615269529523,-0.022192028611389164,0.03574714929712751,0.06224005736861217,0.020974118254342332,-0.050054860717837296,0.009460101495905655,-0.019890420488185345,0.005817208754886907,-0.03790102539321953,0.012549653846309822,-0.009839742286863955
43,0.13023016215935715,0.1457459667743309,0.072335255828695,-0.014412283184646671,-0.040495100816849386,0.014704280932948025,0.0728307380230674,0.1160928765393431,-0.23597764658911943,0.04101235180849009,-0.018953822598774234,0.19251229018649102,-0.029825142385602875,0.12328667552047609,-0.039374070301180654,0.023014248484491847,-0.04032624379989462,0.05556815240270023,-0.024224326407659955,0.03405765081501645,-0.3708816377509109,0.13142357467424734,0.061213847142874006,0.011801921516101238,0.08269401082391144,-0.059211661292496,0.06282587387371547,0.0837437827870818,-0.026027930120733976,-0.0029354762603585223,0.16797563728134693,-0.276620704733862,-0.03946284045330031,-0.040295134782852904,0.028635230321719066,0.1303392674266144,0.01231776098142117,-0.029658144030514075,0.39555497936997586,0.16796474617363738,0.05766054334135891,0.19336259310567191,-0.12930733853330995,0.0724261507795927,0.01846167060485368,0.021972202637697523,-0.014217351893086344,-0.17098798165951049,-0.16555160723707354,0.05404388560475968,0.08686627771275167,0.027806127735002618,-0.4186507785344426,-0.02179494382470991,0.027223586249875305,-0.07994546523486973,-0.00014809920117446473,0.08637262068251945,-0.025115183325242568,0.0032319471118867765,0.009281514005055974,0.0348735935187726,-0.016865999317777495,-0.003925405421864092
44,0.12681218926608645,0.15534275858133864,-0.0706823432349065,-0.0638111205842675,-0.005345819070085079,0.009027323052195236,0.07072110949537798,0.1451750165011926,-0.21575899683037705,-0.07017457267850294,-0.14955318468505352,-0.06506116469186335,0.03369066305941584,0.2260484513590111,-0.08620707364967563,0.14253438095624038,-0.12664937734373705,0.12188995826739457,0.11537205407164738,0.11306017001887109,-0.1239116587494969,0.010061594005567661,-0.050096780209276784,0.024169008759569587,0.04427859566601852,-0.029475163064205834,0.043737420548177156,0.06623599166303346,0.05924664211291408,-0.5652233282003295,0.1082676368053216,0.11992099929761978,-0.04325736943651215,0.0017063155348907982,-0.16424044628942006,-0.024148577327917017,0.0684620689171839,0.10821662712441504,-0.014882507842071315,0.022454950933761042,0.020326255189291376,0.09830378025753261,0.03665636247097726,0.06590359379961373,0.18298537929625355,-0.057650947223582494,-0.07001408390344552,0.0896431570424675,0.24266919376300888,-0.23627877139485076,-0.04878109699095437,0.03870003980495318,0.26247610004488503,0.08595602987838293,-0.06587996292956957,-0.00890177606675524,-0.03108377573568863,-0.12368789814239921,0.04366044604810142,0.007249634562826374,-0.018710474323911125,-0.0526254100150966,0.0036098923768603797,-0.0006167233672204134
45,0.12570372184320985,0.15900269680710602,-0.14408399642305497,-0.07081772026207082,0.08913285030422051,-0.0030305248982252227,0.06595011649579274,0.0029683042032982547,-0.0974381809451046,-0.04570192804145353,-0.13170186315481494,-0.06729055085568626,-0.018436155057980592,0.11381033829243231,-0.0739698521900787,0.12250796472106568,-0.09932909435487985,0.025960406890646253,0.150004239978072,0.034120258513287635,0.1771046711921243,-0.0329221048381505,-0.12914407098282388,-0.014824833617819493,0.16851830775938392,-0.017186933139514513,0.15307402207607998,0.09054948501296503,0.17069345006261927,-0.28787453367310634,-0.08362073038158366,0.015445009575954557,0.0013565783807385633,-0.05364630634221385,0.037080441636912265,-0.10330136391658544,-0.024132900022886594,-0.044664764778337106,-0.1955473213131117,-0.12573133024581234,-0.01724322713112405,-0.25120692389503474,-0.036008190253711374,-0.13283460020753632,-0.33765315413657615,0.053329412507075666,0.0470670423206931,-0.04488902087751684,-0.2627982681890025,0.31927995837992584,0.013621753108435011,-0.03827678470933326,-0.17321200043766333,-0.12535360431587453,0.10195170397951953,0.04530578685735501,0.057233463310084345,0.255999732577447,-0.10133881307311196,-0.0018885315568534233,0.021912151613955155,0.07151838337731559,0.0010624129113746827,0.002892121675964606
46,0.12237462651089254,0.1470903896283428,-0.1844258768023098,-0.04270706753968893,0.17278698914047924,-0.017265039337047802,0.0630380770478936,-0.17257055806509675,0.01738767893029043,0.037879877599734824,-0.05138138966299696,-0.010282937833650438,-0.09727436485082956,-0.07568329038370063,-0.0023838472556759293,0.041863732566591656,-0.029523977271771817,-0.006905718626466387,0.026500816606490916,-0.08271432781388988,0.08742916413403032,-0.022876994603846665,-0.05510942792891618,-0.04077975620290769,0.1266514303888011,-0.0043221639463900535,0.10167061759132379,0.10116749725507067,0.08756543808974822,0.014721492761597994,-0.048194569028483764,-0.06073595614881579,0.14510872419371287,0.0741426141897924,0.31500737933104206,-0.18350911310664597,-0.1023075255323892,-0.1946267649172604,0.16135603106782098,0.08160748166231215,0.022982942754174687,0.1282747539700902,0.21300590603867575,-0.07322633886618334,0.07143690984925238,0.0007657904986406172,-0.02610096324440505,0.06838296178937954,0.0856055938941974,-0.01197430324083415,0.04023679524995947,-0.15471297205293416,-0.12767507151123786,-0.15361613466377838,0.1272377124177997,0.22407051950531925,-0.08734627132226117,-0.5095482041310426,0.18982773770044506,-0.034891698058499135,-0.059452962014176214,-0.05442257636644946,0.0024662907554607316,0.03647914202264683
47,0.1237896544974532,0.12495894846288653,-0.1849923752693057,-0.043098600970705274,0.16306107743786014,-0.003772956144462782,0.00515821936104068,-0.20885709620255904,0.09797245839623851,0.06439304534227894,0.017596818979868506,0.09010540122245396,-0.13625697571432227,-0.13479635009628652,0.012327686427613619,0.0292870132896508,-0.11079610570723926,0.006450364103322219,-0.06953526842022159,-0.1413705258174572,-0.2470564950310281,-0.09656557404793599,0.1277694748419385,0.044304984096260255,-0.08859064168874788,0.019311920931691477,-0.08295924264219959,0.019642934028178367,-0.07260304226154098,-0.09927789285456673,0.012722563990844551,0.2907078571169841,0.10724732462716807,0.14426664962999364,0.32366862825306564,-0.2389952425060411,-0.12271765218789657,-0.17086619072139037,0.1808005530634631,-0.1298262517760901,0.025413832337079174,-0.09718157846775216,-0.18310022230039102,0.014912435396724821,0.12457075364710082,-0.03492111929936764,0.013048442315230637,-0.09992892962922734,0.008008915899643365,-0.08547875125276734,-0.03578213694272574,0.14448130313315355,0.13267303256832239,0.11152059512442164,-0.09766292539356738,-0.13262639840155002,0.04966320002992086,0.31390986065433935,-0.11170332225986679,0.02241842459718551,0.022874638462434788,0.041319097962527966,-0.009913595195092911,-0.0009996164709088415
48,0.11180493716704312,0.1024340665949741,0.28689205581928695,0.08198210674532402,0.09469077905347703,-0.036626594482744385,-0.06631160792561776,-0.13992468876197775,0.2065757139544451,-0.07036450943209592,-0.21996720146801022,-0.09889540047024897,-0.06341631793768093,0.2655823305002117,-0.020505767503236204,-0.12091576734454236,0.11104179998048241,0.031262463398889065,-0.07357033414545912,0.029654733793784936,-0.015829582163160334,-0.13728960047941915,0.12416214060245584,0.01607499078350387,-0.21615095300107873,0.14567635827280773,-0.056295098117279924,0.07534410920441277,0.2315887739256971,-0.08729400538856735,0.045140230623316416,-0.14866247179763797,0.029214661277221624,-0.07444466022413099,0.21868595656766093,0.3453218749563789,-0.2350259968505209,0.21575420552755356,0.14960615997168658,-0.10688758403660287,-0.018260858590991816,-0.2928903869592146,-0.0015495900970257173,-0.02248480292054844,-0.004644698979322459,0.005534237215325782,0.05195900807142842,0.10245183265998248,0.14621779855863443,-0.0403925425465617,0.061075002281769465,-0.061650885345082,-0.030077697510715904,-0.005896328246033852,0.01476816715358778,0.027472021780204525,0.014797055309297771,-0.006781480646271711,-0.002258407723273314,-0.006667666348023245,-0.003592146562213655,-0.00010620831830607247,-0.006087477468976449,-0.0001984300870372102
49,0.11845188626046249,0.11000261413811356,0.24384813488339985,0.09233598884815304,-0.09526072934039623,0.009442499386131451,0.07571817594134743,-0.1822033030057262,0.030116356696218437,0.08502020840192699,-0.030251599916637506,0.24494370198260904,-0.08641477036028887,0.11416371303090214,-0.06907908662693303,-0.021754699662444057,0.07670418976595829,-0.03252725057922034,0.06823259417203534,-0.001541173455961822,0.45699464549059254,-0.13042354116510274,0.2750676713164259,0.05434922427135239,-0.08944000913697824,-0.02558254629265136,-0.044959570680208685,-0.18370087218233805,-0.1685944342850074,-0.23086754949409935,0.10000055767714675,0.08918926100929447,0.01620815411516842,-0.023600206432247698,0.05227290091591434,0.09996596882250343,-0.06049464727191998,-0.1247575492935431,-0.05745415542433836,0.16447464789836788,0.03766546704656295,0.3453272199669975,0.09048525246433048,-0.01517198465152192,0.014272022350586375,-0.01112682083555451,-0.054842525601545414,-0.14596050803581245,-0.20963292992801752,0.09786727279209265,-0.10889157145503062,0.1091065900390092,0.08540837566307617,0.0018418679832302998,0.01850047385945182,0.006893551679975296,0.0020040516734520647,0.010956527092157928,-0.018353625525949494,0.017422316166628996,-0.008494733079776051,-0.004323829495764153,0.0028092026646742707,-0.011644151109001744
50,0.12147025117333486,0.11502249744958883,0.15792255835330768,0.0689570339506813,-0.22673540095218483,0.020916370215765503,0.15236414959147343,-0.12001128009666812,-0.1046495934197409,0.11238593116435135,0.0538996382397226,0.27938648126923754,-0.090779948917849,-0.10214745928935544,-0.041189919396477544,0.08456683923792062,0.0637744156681062,0.013974021426898783,0.07626869051200694,0.11808219041283947,0.2097396652084037,-0.022898613980713925,0.2848697257580453,-0.005658766122497015,-0.04944416337450544,-0.027805629027960133,0.004904856264907109,0.11627838891535233,0.1387510513162463,0.06348968086996297,-0.11521077763856487,-0.015045187549178472,-0.05107644319029259,0.08856837864778105,-0.18326657140010177,-0.3106921850172096,0.198176602995651,0.0034176078466071763,0.01365572130275746,-0.1205588954617278,-0.0097895896912224,-0.18788801962778673,-0.18858112151131876,0.05034360625646343,0.03472493708851283,0.02315403234112068,0.0811781924283068,0.23746855909372802,0.22592586744362766,-0.1482066520777993,0.15266047570531915,-0.18079019024147103,-0.21045929007497152,-0.00037626898772463724,-0.037403121105305644,-0.08707139200456325,0.01321985661690896,-0.001089699153340248,-0.0027182094668347437,-0.02123345387997884,0.0035180159056895366,0.042403272645892845,0.0009439511670385203,-0.003396048940562106
51,0.12762651062765806,0.1354429894278353,0.06010930740592096,0.01587559508114341,-0.23645405689343252,0.016664595872471776,0.128049328281383,0.05568153567569337,-0.12515478253905155,0.015988385021953273,-0.08513092348553025,0.08338921738254196,-0.11710621284564723,-0.08947013355668541,-0.006263273062137378,0.06332344760140428,0.04738848350811644,0.047351022694557945,-0.026873651171710332,0.07593854220909693,-0.21346303136926542,0.1471912988961005,0.1891178772191431,-0.0025277592652187225,-0.04493862613805409,-0.024248695810532073,-0.004401460468754365,0.20334630907280987,0.2322449759978908,0.24298549153176308,-0.17213357479793617,0.024169788376181035,-0.046956653782616806,0.014305256015575238,-0.009793440896269642,0.028920068921553625,-0.034215919034445264,-0.0367604090950385,-0.05464514265758981,0.008847537750504036,-0.053498408001917214,-0.10372043984034904,0.29633477717854007,-0.13842105979761998,-0.1487573848410489,0.03534849905140529,0.011424422759373741,-0.05272844602824009,-0.08696591680206035,0.004072359793618592,-0.15998785559635612,0.47561420663400417,0.2553581855785132,0.035685259089783525,0.050432651525245675,0.1869847810239544,-0.01687730423372369,-0.050600543855372965,0.026649755242170482,0.0206650981000292,-0.005635184100690083,-0.07207017573265309,0.0013838374855120184,0.019550680158533035
52,0.1227178163732344,0.14670588876749938,-0.07072671214449534,-0.03710769227166485,-0.17583160432262418,0.008141439440023785,0.06929165276493959,0.24271323122740654,-0.06603846530566143,-0.14655503632802905,-0.2996969834887919,-0.12349516947001904,-0.1223911391950701,0.04815176543908008,-0.07840774221527058,0.14271233526855426,-0.09682269247520892,0.03281947151768481,0.007361702896911778,-0.037926091488218606,-0.02025268082238825,0.22477868683276758,0.04261547700545995,-0.03682129035568507,-0.22240278236657407,0.063671524726847,-0.16412033871411108,-0.13407672833662235,-0.10332511812444752,0.24124430595219454,-0.08553512230569742,0.2836374821276949,0.026480403891987025,0.01794098138385307,0.050010481984334304,0.18064137318943774,-0.12707493188164257,-0.23757706688705016,-0.1301726214173806,0.04128921608237045,-0.05289849399055514,0.10987262945549597,0.09789777228254837,-0.0747524568234937,0.04688485474323315,-0.02761897412674058,-0.007937463545065034,0.1026513463395706,0.08878013421658135,0.08735775964192083,0.08290812745449894,-0.3591865239306068,-0.08924016518125275,-0.014346909001054564,-0.07035092702900733,-0.13856176296491218,0.02328313643341262,0.06714111397337852,-0.03238938022332738,-0.012391861901345197,0.0038667121431397306,0.0727800572940657,-0.0017393107579124628,-0.014599338413026288
53,0.12435163442889792,0.15409676635588418,-0.14922022326155396,-0.05471641460568627,-0.05485932711032646,0.004155896100869007,0.01983990669309309,0.13850788719304405,0.03736513373425515,-0.13521029342761803,-0.23551895757490973,-0.0584820956302861,-0.04799262721872223,0.08006244263021323,-0.08576580319112095,0.14382602383783102,-0.19380598405286034,-0.014830649770263039,0.0982215871914267,-0.07522331146237195,0.2702560022805713,-0.0063709926130112934,-0.09020230147420767,-0.04406552541130286,-0.1411655483883191,0.07988727760371478,-0.08670468379261405,-0.21870804555205853,-0.15413238328654905,0.26419926235678376,0.03217559298308961,-0.2103581272270153,0.027470855484914923,0.022274245873896394,0.029521648076839768,-0.14407314153514061,0.057510070830222984,0.2550505824663802,0.07080165215538477,-0.11300571322131392,0.05924721829706528,-0.09230719996169608,-0.3186980291377789,0.20143324303483534,0.08920003876484246,-0.0034407587641123254,0.032594419638450445,-0.1251838621929184,-0.12888330441756926,-0.11689156479741393,-0.03024085650769845,0.26820297758056766,0.024563667267947974,0.0004341660892629995,0.08574321396667636,0.13981788194796746,-0.03719680523396737,-0.11194302166122519,0.051520453637840025,-0.00596154826342149,-0.0066593837806373235,-0.07435608870611479,0.00346237276354127,0.011884554723936347
54,0.12489265868917648,0.14336293764046967,-0.19363266672244236,-0.04174042380612067,0.060516975504212304,-0.0021946573420737353,-0.0070245184333117905,-0.0631769630628712,0.1564917905117769,-0.017132660624269522,-0.04323114993746652,0.10721523130039204,-0.02904113867950705,-0.018234076919670182,-0.05470844556218631,0.09652356184793977,-0.2080984072683117,-0.07458864341022553,0.0498688149333378,-0.12615792154623062,0.1108365057362658,-0.26682682099579796,-0.06212477706746371,0.006519695498808953,0.13356686696984246,-0.04307900589390756,0.058859833812669654,0.06497422701057598,0.08438223441244594,0.22344718128887225,-0.012633525134139428,-0.30371329415487813,-0.02205799954284443,-0.026159117544307862,-0.06479048209704999,0.039959939907289535,0.06294867601105539,0.2052597273884879,0.07937239182244715,0.1423012104764575,-5.085224512903219e-05,0.18055933526953905,0.33517214101366205,-0.07595965290001855,-0.1210302402896322,0.07467398038519213,-0.09016435903117861,0.10908425516906106,0.14167500400205563,-0.03161198059200064,0.004990046168147709,-0.04722111156803761,0.13599348991231403,0.1547206031495271,-0.18734278602350052,-0.31980021955363536,0.06631414189198881,0.2036767368431348,-0.08439431065120866,0.052452728080469746,0.03538865065427876,0.03566389405303414,-0.002391582791116738,-0.04239558781470491
55,0.1257242558626028,0.11929908133277435,-0.18057603491319812,-0.04064688106905283,0.0584131872859273,0.013240309343318275,-0.07729492885315466,-0.10714379250020359,0.2190835711618157,0.017787253822351523,0.08167222200399697,0.2302565232055685,-0.029029736316199106,-0.03795093174519654,-0.022215378933991285,0.05938414834689505,-0.27304592052779525,-0.05147138461307523,-0.045282965352756575,-0.11134057054794397,-0.2714971835900591,-0.3250352144578703,0.1413675480962566,0.09231919403892758,-0.008082839141378126,-0.03397765804637443,-0.05366001164663651,0.005350665703938575,-0.002742769732713469,0.02018314781954733,-0.0568132300288952,0.1411911445476042,-0.15146397543502854,-0.12304473259862025,-0.31135476445571136,0.32715943392573393,0.06058310321034903,-0.03101537425366202,-0.2645773205185042,0.01245076927483088,-0.028229539347118963,-0.03377051410415942,-0.13678181235997577,0.076009145341774,0.03746386968354324,-0.06627970592752173,0.05240330579828485,-0.012690726848596366,-0.05504420655861264,0.027944553472941447,0.021858448019365477,-0.0592026490822849,-0.10281693352191273,-0.11014589223576884,0.12070001607039679,0.2069766022768289,-0.04671310234370188,-0.15796435006251494,0.05360799455769484,-0.037052180672239504,-0.013607174391595006,-0.03866860302747671,0.013864184904883115,-0.0006045874593320899
56,0.1151030074477588,0.09252041700299721,0.2123096402254425,0.07036584488666782,-0.04772942922749744,-0.04318860347072343,-0.02576502019392013,-0.32597240936394456,0.17062239151657443,-0.06872498903902939,-0.04801934392998204,-0.2594018123361156,0.22436659441184162,0.4212094773800274,-0.04299734439300083,-0.07723212043063572,-0.15183479075059547,-0.13158960993802615,-0.15035156797898414,-0.2694405325628541,-0.08960857397465495,0.30895470350145776,0.14767128353149744,-0.008852820626266803,0.24031664029299438,-0.16477340801403717,0.08049835442218015,0.050059251193389276,-0.034015077165012515,0.12552880112712111,-0.08110197649509923,0.08346225859525357,-0.0277456874823916,0.04944681458380719,-0.10380153259344828,-0.21052116489681277,0.12143075108381175,0.007828713120578184,-0.08248587318072079,-0.013895616675385261,0.01644493702490343,0.04693664743898955,-0.00030373873820112654,0.030401499448079725,0.04126787520397289,-0.0030084018393117945,-0.028858827269665228,-0.06521578013821544,-0.028347974499059698,0.0013734611338276116,-0.005705125497525339,-0.020078274372219512,0.0010241153508803447,0.010058681329124464,-0.010891151713351505,-0.023840777081654996,-0.015493709744941131,-0.0009067597073708217,0.008221582094063457,0.0030367987526920825,0.01089627704404457,-0.0042471575466030975,0.001783192067828121,0.0037106922999828873
57,0.11665004771863523,0.09154462702415961,0.12277306202328278,0.0664044438943002,-0.282813704612005,-0.021483787506512652,0.11762346709033282,-0.3464648250870358,-0.0057778426292428835,0.0484631254625852,0.1988734954499784,-0.1954819219870669,0.23286162122122975,-0.09121787061221683,0.02604585754445909,0.17797477194206063,-0.18884772050471663,0.00915064954030706,0.12771380578404995,0.06241391280790778,-0.04835099703411134,-0.030304101691754,-0.3453012376157814,-0.007715935622599725,-0.09592205628349977,0.062440776054590516,-0.051903404671164985,-0.14438582487801782,-0.17919591291228446,-0.03194443872795302,0.09595458249231266,-0.02494090577043534,-0.00031424529283359537,-0.02207128291112387,-0.023209125819096427,0.16044889521920422,-0.010450513266315742,-0.23278073016866252,0.19985494786254265,0.06955250005402493,-0.04119029365521737,-0.056793960231496736,-0.07710959167392693,-0.12697189273360063,-0.2259981785660503,0.058880413594714236,0.09197433548379431,0.24042953859185173,0.0931239542641637,-0.0521191404384487,0.012019183925023554,0.13855092117339865,0.017492558510284497,0.010803857645636822,0.020469398768521566,0.06330387866922736,0.0009832768690247878,0.005372127729674717,-0.007426601777601145,-0.01376583686951477,-0.03153683410045343,0.023628779640406605,-0.0030060343163611364,0.002159516071278891
58,0.12131212479928205,0.10361928721276822,0.08598539007003826,0.052783452396837155,-0.3265760411089436,-0.0015227274409079278,0.12954170233192366,-0.19846595051341673,-0.04447256740598351,0.059219874912178797,0.13417222195776868,-0.1319266851153529,0.08872675717655962,-0.22702438415461776,0.06807057614579694,0.08035105443580906,-0.01350209281010744,0.03672061216572422,0.061890319044850144,0.09245761224669986,-0.09878983408408586,-0.09319899384714729,-0.19170415830923088,-0.03403138156693526,-0.042520654230104905,0.09184737187171237,0.001359823469726698,0.03582974718531859,0.14213458724302547,-0.0052674146268009425,-0.02157490280196701,-0.021397237791431087,0.01862795735191669,-0.028077455506847065,0.11028184751499705,-0.025488504768209796,-0.08928869120716293,0.27517473042445495,-0.1805859621583244,-0.10844813672156546,0.045372092792660634,0.00011799827681485773,0.15135233021106037,0.17401270754625991,0.335690686645099,-0.11716078329621009,-0.1500954669184289,-0.36959414506383714,-0.14052430179491862,0.11502124706193745,-0.003272416814378065,-0.23563371535124622,-0.017763971045702424,-0.02365627828321301,-0.034330386712007124,-0.08230006187219484,0.008957092088660301,0.009211757278867479,0.008640264376984567,0.027363001033333556,0.050399129767116545,-0.059330674203120506,-0.0018088051370823005,-0.003066260365566828
59,0.1256683511252505,0.12554415707014568,-0.05452364757893565,-0.0078083987493788335,-0.27914662734557744,0.013616874461292639,0.04380340515321296,0.09951845806816227,0.049587192618424016,-0.058961826951356204,-0.06321581939648961,-0.20031043300040835,-0.04870165485947979,-0.21199536150914638,0.11239962794758747,-0.1798726077016464,0.1914984560906556,-0.05415680842181088,-0.19272160825370235,-0.11347740344117456,-0.056173403921979094,-0.12048466377251811,0.02498822905208136,0.04870197171405491,0.1555923585390152,-0.02622234027384865,0.04786846156740875,0.06192437605622517,0.052896503728756025,-0.08084155003369077,0.01035780389823554,0.0531180813376937,0.0705263668048249,-0.0025806802297216047,0.13644313681950931,-0.016927745549857293,-0.07123782519961111,0.24368626422811424,-0.16625492794800345,0.09951596206095353,0.061675453751254224,0.31558095749570403,-0.2946185303274911,0.041487977779551405,-0.1860343727795356,0.05622349392523529,0.07143923611213572,0.19060821800508357,0.0093513461602351,-0.06156127504129718,-0.028090583851905784,0.06545230112358162,-0.02269088496575369,-0.033025645612247384,-0.007111338973155079,0.03724067656050703,-0.03147844000616072,-0.013024492478977932,-0.0033634902546567647,-0.04188176585251166,-0.20043458019919497,0.34624586027975984,0.04044035609654934,-0.07697471490614431
60,0.12602156973979012,0.12810280711469574,-0.09493707714598701,-0.01657720324857189,-0.2492261652053472,0.009441957714178356,-0.004453535209119427,0.1553273989050314,0.1110192331974993,-0.08997627913491692,-0.05982492185731666,-0.1469237664720213,-0.03580864088626648,-0.1472838852750517,0.09771673789120316,-0.20801591162251656,0.1713533621281539,-0.08275722330534878,-0.16573083605803002,-0.13810030106337517,0.04174541850318036,-0.10264828706824654,0.0363207369436396,0.024241425350417057,0.10252216852714358,-0.030062994315302155,0.008731485931166415,-0.026098864260722054,-0.058963589062909855,-0.15281035880927243,0.0760378140768779,-0.046930856679318206,0.004023351548849724,-0.01189851785154114,-0.07014846003438402,-0.011981736092537068,0.06484764173171453,-0.13014053628524097,0.07798542965656884,0.010157913840092785,0.005778174839738279,-0.05769744584928204,-0.0026957599685152323,-0.05854560553158322,-0.034577623692699844,0.017417971880396843,0.03552368375427205,0.026221855058913335,0.025162400248444364,0.0005682359454631967,0.01807253293587914,-0.03614854566569742,-0.06703974989874929,0.055157207888443915,0.04569651270983105,-0.031373949750824276,0.024363458405986582,0.04406912151680683,-0.051019821535538586,0.012547494139195745,0.34304015104718455,-0.604955583436741,-0.07942526719652251,0.2363227397850448
61,0.12755554880303172,0.12469798518624274,-0.13048340153084775,-0.021891518259763845,-0.19644369390983712,0.01313862565156042,-0.06900298876252989,0.16378653735243043,0.18906287899232851,-0.09077875955426497,0.00887721525737513,-0.01981858451750608,0.029761870057831565,-0.03862311977540942,0.05814412566951724,-0.18156539978762096,0.12383633320138518,-0.06878227602018061,-0.07467805691824336,-0.04276166937676184,0.08184540329658341,-0.02336113959596025,0.007528255694490657,-0.008726512288102969,0.030279619931194462,-0.04776696693622495,-0.00038699289858002556,-0.05653101178855291,-0.11000217452465791,-0.1311893896758429,0.08057031759160181,-0.1141997478218571,-0.0787824401599261,-0.03100468605086057,-0.1711029172824131,-0.018923586068663185,0.13516079382681465,-0.25664179221001715,0.23805279673052138,-0.08478319330553175,-0.06641788470240853,-0.3407169373628725,0.23197249908675163,-0.029806187610089727,0.1750300625024795,-0.04686936323057918,-0.07956528430071717,-0.1864582595402535,-0.0030158285189861855,0.03765546783891485,-0.006976401607773797,-0.00651857877465209,0.04172080519745268,-0.04090791989033654,-0.02161103315885024,0.01923740797039803,0.00677097563434137,-0.02851442440646116,0.05626162637030408,0.01335535320254188,-0.20188184443876916,0.3572585093795053,0.07616710899442398,-0.29827913154726243
62,0.1275463325105231,0.09715306153563483,-0.1602799384667433,-0.00952444964438137,-0.098668484249447,0.022149449742547924,-0.16420227438039042,0.1047671342336447,0.2900844509086216,-0.020299709037159285,0.16896434450584402,0.20629544423950763,0.1857032266158071,0.11347658364427726,-0.0015342172459263683,-0.06617813948519279,0.024079845903537782,-0.01266436729684588,0.04707461045261521,0.2450077920232195,0.03524424173964676,0.18623092169550778,-0.043893140536548095,-0.002995660705890687,-0.0741349628626787,0.03857873715969734,0.04608480671341676,0.05864022879559281,0.0074487904540106835,-0.007109416936820473,0.011894228581108376,0.020009947036222442,0.03026529396400831,0.03742975038880478,0.04833247314247485,-0.020131482133245462,-0.03832767388044331,0.0329889207803504,0.00233274748097248,0.006032929144261984,-0.027939358402685452,0.026020484671283345,0.014450041001012506,0.001966454372974852,0.01138680149468796,-0.0037797427570870346,-0.02506003962969243,0.004646668725780928,-0.011685480716368657,0.00726896209216224,0.005558920775467949,-0.014220575576179284,0.03837153673080576,-0.006763984487114943,-0.01280983538638508,0.005993188567866695,-0.007787022476924935,0.028800710461469592,0.03182455641995651,-0.006085652729240734,-0.10090812205119021,0.21497508762982556,-0.1744318333344896,0.691282387213006
63,0.12694801007208836,0.08965709648914538,-0.15866180285170106,-0.009529474885591038,-0.0842742585399922,0.023535354147597363,-0.17987926075339092,0.09884618825771589,0.2947454038826977,-0.00987181843399176,0.19440093502809686,0.2226125051248634,0.21458986088772242,0.13268739200953017,-0.005212587674050825,-0.048540295697108916,0.02045925874514638,0.010548403736721461,0.05404158931355553,0.290539687883137,0.014471473320387826,0.2308488202092499,-0.05475803000924812,-0.003512454424334654,-0.08010101252629712,0.05816933981264573,0.0687845775616763,0.0757599711320589,0.039587702474759894,-0.0005245940585053427,-0.04196568587866861,0.07003963257841798,0.06771618703795132,0.043360247795568116,0.1516727982868756,-0.039989541417032676,-0.08487774873443772,0.06545571791252239,-0.06398402276651105,0.03138298314092863,0.010698583237004622,0.11663858198148555,-0.0780608177574334,-0.0231557314303224,-0.06330398198399916,0.004512645171437332,0.044266777914621004,0.060642930381085036,0.026766006379142518,0.003724065898890072,-0.021017682635724594,0.015012337276019982,-0.05015178064493395,0.012567158895167019,0.00022291419525519163,-0.004495464317576275,0.0006512309096331007,-0.016419445962542308,-0.04574836724717524,0.004550161686361182,0.12990215866149443,-0.26226234497234613,0.1381018666471196,-0.546540709304318
