,0,1,2,3,4,5,6,7,8,9,10,11,12,13,14,15,16,17,18,19,20,21,22,23,24,25,26,27,28,29,30,31,32,33,34,35,36,37,38,39,40,41,42,43,44,45,46,47,48,49,50,51,52,53,54,55,56,57,58,59,60,61,62,63
0,0.1272604089848407,0.10007691541779618,-0.057342112718982714,-0.2080708320418644,-0.07158961095841798,0.05976223105441047,-0.01815808496824139,0.15293873852886744,0.0995064955256337,-0.4856843836760036,0.161937061647004,-0.1734224004014274,-0.019708801683351453,-0.006379681607476811,0.15269021480310785,-0.12486495491468644,-0.06467388790134188,0.30358080080949107,0.1989566432516438,-0.030089237223515117,-0.3166347625977702,0.06442508781885938,0.02067043384932382,-0.03403399681084388,0.09193385899133222,0.07263938435194696,0.15994171404785945,0.08769536216867328,0.34516247411631346,0.02075369477242079,0.056270756353478404,0.051506396314469106,-0.1245679355839994,0.03980558159808401,-0.025777299482104044,0.006570929466737156,-0.05362637310508466,-0.020064957255629293,0.06552940121874413,-0.13038871565065108,-0.006997106115974729,-0.10273109612656765,0.02972332380907658,0.19564157149819456,-0.09564428445301926,0.16657846127135187,-0.05569755085018,-0.027210275709635003,-0.012565569370512467,0.05141357798870665,0.026333151187649763,-0.02484054037277764,-0.024682822375467633,-0.003800929609375027,0.012917216774945417,-0.0005620247710398759,0.015558321649331505,0.006810736051486135,-0.0037450459049944737,-0.0026988930197863934,-0.004542495079882519,0.0009242415159779815,-0.005438487769475384,-0.00236146786885849
1,0.1314618719626004,0.1070370511526029,-0.0403493219061192,-0.17666533333704798,-0.0514312646159251,0.051192076624785594,-0.033503284438823236,0.1624345560238092,0.05786146313814841,-0.26444359738218415,0.11676166011406944,-0.1368826743656611,-0.036863392238489154,0.0731533684874835,-0.06985955571749294,-0.13383527362571784,-0.03349276656646354,0.05554657426279728,0.1507958511569774,-0.03336285391538433,-0.0380138978698962,0.062135065204664566,-0.2290912129679933,-0.1703108589320929,-0.10722226057140728,-0.23019454624299326,-0.11550641217886967,-0.05796463152984181,-0.09091517286703714,-0.018211557391671403,-0.030599835722735967,-0.0416830505027779,0.09403715986409444,-0.07059613573691327,-0.007160193132874493,-0.0008190257177446154,0.10680193920804275,0.13973614902690876,-0.088476902327961,0.2898543135229153,-0.08714782094880133,0.1705684447112137,-0.06757350337442795,-0.4133771049037026,0.22476017892145905,-0.32757265588736123,0.1821243384313131,0.053821242909859866,0.023602569175008754,-0.06709476121168284,-0.03426384277714914,0.05201245325451548,0.09535986249146855,-0.00016508042511701436,-0.033175517873785795,-0.005912231204468306,-0.032615837926714124,-0.004761378067965127,-0.003794691240493837,0.009932622412578435,0.006447363456458635,0.009653825975578515,0.0004298303117249269,-0.002419424864812841
2,0.13342973660702723,0.11148883286225719,-0.01015808682103303,-0.09862501692761078,-0.028165225092656676,0.026488380045055007,-0.03149889576607182,0.20891580281417285,0.003761298014572992,-0.03608514202434426,0.07194359614075095,-0.0813106883660501,-0.024283029192959837,0.13200501349049962,-0.30197450131240045,-0.07308685164474499,0.00932927355228229,-0.03537312599539896,0.13499156290823938,-0.04413589929049284,0.25261662547545577,-0.012515076243398565,-0.19004159543896976,-0.0677077592346861,-0.18923668607421895,-0.32255321865069414,-0.2743538016276391,-0.14908216201343702,-0.18539103428894133,-0.015351696121526148,-0.07572005136691297,0.026483354105380906,0.2147809305299509,-0.00623404404434905,0.0627091454760657,0.08163386246127338,-0.09116796993693305,-0.16282007550789884,-0.013032052040458507,-0.22626514805626097,0.11552583362494671,-0.017632449366209613,0.15134220621887068,0.3224677083250061,-0.18348099793242562,0.20250758520316853,-0.10591551330967984,-0.030249765082677023,-0.013724080344029208,0.015117343142618145,-0.014481108902951139,-0.0013092451365830787,-0.07648521768782329,0.001961182079063259,0.045269172975648586,0.01578437148532524,0.03665627846182931,-0.004181384954940168,0.023227832388966495,-0.020024887674343416,-0.009157644278316116,-0.007952066369294398,0.006019149521572759,-0.0035546653789216053
3,0.13232835398240447,0.11527252287432538,0.021845226327621925,-0.0072823290379556704,-0.01180704751816547,0.010677679981932864,-0.017275300840225785,0.26179217826405166,-0.04688634590511058,0.07913136814643526,0.0102328520761652,-0.012670161217079257,0.016118136278393185,0.05478450144261539,-0.3481425383589656,0.18849978584724147,-0.010398628114121757,0.22183752519933742,0.17595324663045375,-0.1036073569729756,0.3172430650753587,-0.09801892464233622,0.31715400621212947,0.28031517855587534,0.010532495819749778,0.20860383630130377,0.09818813625052407,-0.20416143062745665,0.2541328614211207,-0.09319374356534608,-0.08514398690022794,0.01699172834935736,-0.030961126398932913,-0.1351431783154045,-0.1456950397123888,-0.009874984589435165,-0.010638479173037202,-0.015161172784420647,-0.01974480192153622,0.06332383084153599,-0.04304662225872325,-0.09893924985432406,-0.10848198267980645,-0.0794894290431403,-0.12451879466339477,-0.2526066587111475,-0.019399171382941074,0.032691669070509924,-0.02300655773231619,-0.02831855117187109,0.03253171006479447,-0.01727303984303208,0.041063992986501596,-0.006975084926478423,-0.055400576870845895,0.028493149891979715,0.06735473824746879,-0.06459946950223508,0.03277426120754908,0.015757410376285575,0.010195509271373748,0.0170853723272609,0.0073734402422956,0.010633189249046451
4,0.13280974035757562,0.11670144892225079,0.04002600395919553,0.051561435980653145,-0.0037656524230142013,-0.009076667210704645,0.005406128880212871,0.2641165329069881,-0.05813205864091067,0.09932673102570228,-0.013378237653792202,0.025719732430267428,0.03856969101025492,0.004263256622641493,-0.15915386545021917,0.14564515739907546,-0.007729657038868623,0.16326623248932837,-0.1286434352686085,0.01410564252240528,-0.0019141493653627994,-0.007532527685729536,0.07122522168469093,0.08209742972861411,-0.12827207108678484,-0.041279446506561054,0.0007553178675578781,0.14205407368842612,0.05349802621448235,0.08756374188873696,0.07598529497230178,0.01096660269610207,-0.0022246521551724727,-0.005175892130368596,0.006305662080399283,-0.09338410035125064,0.03665200956077255,0.08508642922065307,0.09418068615153044,-0.05083727738271307,0.015616971648595959,0.06384069295024897,-0.04506104982102463,-0.10759786958224285,0.41740575898910093,0.3512431709792631,-0.040490737122793025,-0.04339047464387281,0.038967901217276876,0.005508768384576524,0.03274087011084039,-0.006403384771599078,-0.09981040536455207,0.06360800799930012,0.1072764244392123,-0.20404367899168124,-0.41560237808907396,0.3063403502966344,-0.18178439220959938,-0.026085628040951526,-0.042084203211439526,-0.04342957700557614,-0.02688282389821108,0.0003108472921136535
5,0.13234592462324377,0.11534719276286959,0.05099091557314506,0.08775192704251583,-0.0035426523210256855,0.00022182331047136683,0.018154713062862125,0.2645051715512074,-0.06509701475124285,0.09689242296642242,-0.03877028560571949,0.05258855444166659,0.03559039367455674,-0.017699509684346276,-0.04188919239652775,0.0863080246983336,-0.011481111582282953,0.1866118664077996,-0.24845662206415328,0.053184205838413406,-0.0898374767472955,0.03605838881537368,0.008887970623971026,0.01236212943498367,-0.10411826992154907,-0.09604587351309685,-0.009859682002119022,0.2566357549920999,-0.02199654382612823,0.056757394289778614,0.04192242643263952,-0.01599919102041216,-0.04837545755313839,0.08389785817108712,0.06539387159397975,-0.02181657590264638,0.05916780167571999,0.09959140027706537,0.047319924449603354,-0.023316027328487005,0.07648721829041573,0.04530742479765203,0.019461118305946493,-0.03929787376200197,0.2282221194817844,0.14237997418986337,-0.04707925890162794,0.0012110128162776714,0.04438541049603772,0.05236566259436089,-0.06568515049759201,0.012311482726804325,0.09141845895632493,-0.10754709397857644,-0.04062163003133856,0.2626045828322275,0.5137742765027814,-0.35165819338073584,0.22316561793394013,0.02915337453201669,0.036863771287908714,0.06639757753778555,0.02286011015495757,0.0039940779978771285
6,0.13198460989272087,0.10974534694036196,0.0610060771798913,0.12318192012829643,-0.007276569890814544,0.06760544034987725,0.029215566393587786,0.24721040992136145,-0.056667393085283305,0.06364628789875021,-0.0848478977910804,0.08669410508504954,0.029589448235196193,-0.013151810158272886,0.024236738587318327,-0.04443933731815543,-0.04157000936526837,0.21115111171912426,-0.3501040170231533,0.07395477379124364,-0.08102412307551131,0.026681310550301568,-0.025171036435428708,-0.048050153598359485,0.0043065010205372775,-0.13528405518216047,0.014040716155104216,0.32597603262187713,-0.06293254540742853,-0.04395088840677212,-0.04837736328466477,-0.035325149583808446,-0.08379813762476074,0.14763803227901073,0.11332982309521847,0.04281742206237629,0.009856304247488193,-0.05258840072619323,-0.2221151520707904,0.0620818765215491,-0.08444841769843914,-0.03420514960323461,0.061565554984475135,0.12130711728159649,-0.4557004623008466,-0.350603974774156,0.09156828967815128,0.02937389322025122,-0.0624038327728867,-0.043021347085429484,0.04145764879584948,-0.0172742451459719,-0.005776519605861282,0.048549292435591786,-0.02031803193246482,-0.097533799819838,-0.1876455608497463,0.10930929160862929,-0.07812151507827497,-0.0010888301253328709,0.01383567467473643,-0.026575626270373652,-0.013735572386979563,-0.0036142077652197425
7,0.047034925730643204,0.03343354892058217,0.04281229730601702,0.26660740837866403,-0.05434770310713344,0.9471898440492437,-0.033871752869383404,-0.11911173795848895,0.028615031698843052,-0.005347624761697076,0.016334307288620092,-0.015897938506209436,-0.00294642724808495,0.0014055460572498166,-0.0065925705961185355,0.007116165124288684,0.004795853686999828,-0.021300002280005503,0.037712105151024494,-0.005216625368983756,0.01026833657248466,-0.0017471080009134107,0.004977308017353949,0.010672073340160404,-0.005076128629260007,0.010295868036397622,-0.004103283099565126,-0.0272847731359745,0.002394538129825194,0.006707653250828282,0.007500016014119083,0.0037760807427219684,0.008352925446676963,-0.01326115520525556,-0.010193389618775629,-0.0009539665042352062,-0.005796491076612665,-0.0014462040501009663,0.021317466350114375,-0.005091771169803153,0.006127904368650515,0.003885298622472319,-0.0036061637536773175,-0.009975473661594403,0.038133281881820025,0.02866865816446991,-0.011284690643878846,-0.0014613059995235746,0.004787433757742149,0.005440289033715691,-0.0035731908657179214,0.003189249991376368,-0.0034486471363763035,-0.0027612342514104606,0.0015785526534563346,0.0046306324047795805,0.007367462187064857,-0.003934468334898075,0.002400052447048647,-0.0003647101699203524,-0.0016570723838133443,0.0022803058231259535,0.0010955784513744845,0.0003942802135907678
8,0.1271796114329421,0.10390393123338844,-0.0669955228573154,-0.25981212731324504,-0.06144463495438496,0.059855366981932265,-0.04879182384744138,0.03743254996082629,0.05828818111974394,-0.36228727751713324,0.030175906791684637,-0.06108599635861621,0.023441593144295832,-0.11262676501229409,0.24416788767106412,0.15883194386998437,-0.006328291016209048,-0.08935079446806232,-0.3031157428979407,0.028411753333924913,0.0853241439053716,-0.09619725418435372,0.3293026803791523,0.2846488154043363,-0.007724662247506689,0.20159436139543024,-0.05371627939308346,-0.08368076132543739,-0.4112157207321252,0.003907375256402293,0.01817518771430431,0.024702421896258094,0.20957794903144045,0.06755516111080365,0.15405238102493635,0.0011800727215511815,-0.07075013751998767,-0.15708882687257336,-0.0472512909886803,-0.04404090249204755,0.07155556130943042,0.07516423254826077,0.00935968697043231,-0.06364159509583597,0.0354859110183912,-0.022467925968635533,0.0009414591140771839,0.014155082718906326,0.005834390908319333,-0.013622332105833329,-0.02627930840367209,0.030022147358636328,0.010832524398164099,-0.00541461144952158,-0.0075931719583511425,0.0037740678977954464,-0.009810312892207382,0.0033316629290411643,0.0005666564382848646,-0.006124321272461099,0.005391526513040668,-0.0010285241730971435,0.004532883264562927,0.0013685644736133099
9,0.13154008132397818,0.11541006437418135,-0.04508001819621265,-0.20334131879253609,-0.02768214545657477,0.04879485828497221,-0.06732946176846033,0.023310681816503927,0.01142629037771381,-0.07793389673976538,-0.0022138717164467137,-0.02933410694998806,-0.018924623331746174,-0.0037918820392663015,-0.007793246329339365,0.034055197493066194,0.011664563317630126,-0.2527901019333235,-0.12419249098364177,0.04260702113638747,0.13783593366267957,0.0073380722285514635,-0.05665905202539592,-0.03525943837893762,0.018568283613622248,0.05438169997944779,0.03436948106654253,0.15768115294673465,-0.20676293540290314,-0.04283972595220281,-0.04331180548356603,-0.1779832473197426,-0.16578217267701453,-0.18112204953860103,-0.3400770028129056,-0.10894005235760448,0.27459206878397713,0.37976778049071575,0.29014705435168175,0.19264408759529056,-0.058901547210546065,-0.18708058411907455,-0.007484569863718347,0.1978210704226282,-0.11837282001746549,0.0370250803946732,-0.08069552311278097,-0.03218451798990116,-0.027470267760106637,-0.006451810954552176,0.08796680990790934,-0.13676179383961837,-0.17701037928389038,0.07429682247210495,0.016987760360619344,-0.024809697316027363,0.018700561082711897,-0.04199794211787942,0.008155309217914368,0.00776052069402366,-0.00442320003619214,-0.012709063096818008,0.006542878625508317,0.007886209845792736
10,0.13288800850312,0.12057234074388021,-0.01699358911222277,-0.11180359244861476,-0.012510003736376174,0.02645602038542899,-0.059410445669077744,0.10675525666020777,-0.015422484617408139,0.05366990493342108,0.07501003066397427,-0.08788227622256212,-0.03515882671623546,0.05177195646578791,-0.19080809028739354,-0.0038282416984121606,0.024710038039874933,-0.30396103558285814,0.0752207346958514,-0.001615164469724685,0.13624084797395136,0.008426852511648826,-0.1498461419296492,-0.1717586414169665,0.22236097184624445,0.27735390626020107,0.12986336397433884,0.09141952969685131,-0.14796798233300637,0.026927653648581528,0.08793696242545983,-0.022835391591972114,-0.5287752043609589,0.18576908549948226,0.11873237800757148,0.16151747256175053,-0.07100333967400334,-0.11973214596065247,-0.272479283414052,-0.19192585406489696,-0.013901896297019434,0.028001914108408334,-0.076752390945931,-0.10225759232685058,0.10941937803664349,0.013013386118376102,-0.08520082943121138,-0.00648210860864068,0.036563942669987914,-0.027595519160970982,-0.034260241225052626,0.06708535403840772,0.021450166391139114,0.0025896656602459344,-0.005606715181228993,0.0015640390339497986,0.013041525741868565,0.019255724084965467,-0.00831687315133882,0.0029466864510478766,0.010886274485540387,-0.01004607751333729,-0.004772056549246157,-0.007008236473147617
11,0.13271340812377197,0.12579866674676943,0.012634282123483446,-0.017140487303327605,0.006341103363194933,0.0006269219673646631,-0.04009888068777101,0.1344030848639426,-0.04316007666079685,0.1786524314375563,0.12032422967168124,-0.10588455705185712,-0.008698331892549128,-0.003277744004538218,-0.10642715970920891,0.13945373932013272,0.06460709775611172,-0.27053386790477746,0.06290839901019786,0.005550653996637758,-0.1506940673916874,-0.049731058969921395,0.014715954018624997,-0.10327389573578391,0.22673833612706182,0.03135934597593075,0.012464920751303295,-0.014766277833081078,0.05310530194913568,0.16309779978648917,0.22248524500155295,0.05058224722053993,0.22882578062516096,0.1626247266690616,0.16701856414787622,-0.08636259318756928,-0.10827975343889612,-0.1402663897321357,0.3113570024016865,0.2792146218772697,-0.13566567795750856,-0.04791558138439085,-0.011334840055159008,0.021891247311694728,-0.14135058717894095,0.10006079192102738,0.3107266414594201,-0.02448855706627907,-0.029684708399553995,0.19750835276591924,0.08704774297676787,-0.15774427063207774,0.17864485151447615,-0.04421917393153451,-0.15402470711022284,0.03600115473175716,-0.056411667944414115,-0.02988897692448519,0.006364827931488617,-0.00046170853952175054,-0.009000449421040214,-0.0010032196839100417,0.004096061165476482,0.005743772279463297
12,0.1312656900453053,0.12939342831401213,0.039182940963463066,0.07538347659810055,0.01598270545673402,-0.022359169149095616,-0.013675998184065286,0.1425930560124255,-0.053567924768948616,0.18606167342629643,0.11128338001836491,-0.07083189982849894,0.017431552974445572,-0.08968152223580277,0.13773188426697763,0.21522144712837596,0.06020098792053585,-0.08768249124949651,0.08082848645616296,0.01024288240629646,-0.2912576909447272,-0.017339195193090934,-0.014688698579844884,-0.06959818602119232,0.10912966028745964,0.010243715605992389,-0.05661852238000417,-0.27364027647588157,0.02027468946936334,0.08757391284841537,0.09554233564401236,-0.009561358342506565,0.030215955351872565,0.028163822807832018,-0.02222077811646861,-0.23822152434403826,0.07991213196805191,0.0913761388767813,0.03979108765522875,-0.09141923487891312,0.15879121979606042,0.04224589493559786,0.0734615771345223,0.06663780737506941,-0.07302884629263587,-0.15495263043004034,-0.044828041727375104,0.06376198884443955,0.021531430000180724,-0.3949739745396534,-0.24827333457543493,0.34203174647839485,-0.2889596231782693,0.06603524048007085,0.0473498307309243,-0.05981962730770568,0.08285040934941129,0.0326141092877053,-0.00807679518856564,0.017217857770420297,-0.010289340364069623,0.004439177014630908,0.01857058533715618,-0.007275964949537354
13,0.1303346219952896,0.12847628993845595,0.059808062251100295,0.13863647536158924,0.022528281508311314,-0.04109188602561992,0.007002267772825754,0.12160690495961377,-0.04277753154488878,0.09639526563481064,0.02615639566345057,0.006181096999856139,0.04633661052307703,-0.11408989335536031,0.2372631216675795,0.16173080183910865,0.035135886616434006,0.006211505620321689,0.05991407991519799,0.021120788042635008,-0.20946043699229933,0.09798460995667177,-0.13827880346286675,-0.014729949185306828,-0.14742785044657655,0.11105666136057281,-0.07648168645864678,-0.3168352012804445,-0.1243937060787152,-0.032407421501904274,0.032247101201677064,-0.050941965392753225,-0.14299803709749742,-0.2225770848361797,-0.2028225667576122,-0.009651881670179724,-0.0026842445450476343,0.05119062701366036,-0.1726064738242816,-0.18378099875916315,0.18127915266125397,0.14470575359539495,0.10445215360444651,0.01167612646548008,-0.025390510603702857,-0.07875491491623238,0.004615589246880145,-0.03487832501671524,-0.0070334468358525075,0.3262099882504948,0.2661906931960898,-0.290477977896209,0.23439882772360077,-0.04746173605667598,-0.003665095205900335,0.022361511257442145,-0.08943917060493936,-0.011864608194535343,-0.001536224891833909,-0.004108488400540196,-0.004996582883243372,-0.0005188084881646191,-0.02424027413413914,0.010374479953124417
14,0.13068990886545975,0.12065748300746464,0.07141808745454511,0.16189711336234647,0.018316000249071176,-0.046452089750735386,0.02991534259545556,0.13951193116581082,-0.029622371765359708,0.011695382271986812,-0.09236828643964845,0.09736868565670152,0.035766281715173945,-0.08388045186468385,0.2286425127892444,-0.038852305190033104,-0.016537173079512482,0.037712000166213566,-0.02730085042088895,0.0276176477044631,0.0014279609450860709,0.11751574864115799,-0.19674006360253887,-0.07804389682313004,-0.14685221109306235,0.1865435183589471,0.04041928278799381,-0.1207029882634948,-0.08903999793741785,-0.07204608178402662,-0.0078042079983748555,-0.03438334591692927,0.08339278304307177,-0.2211793857710984,-0.15170532511112778,0.3221872262349765,-0.24884680694628772,-0.232585363304193,0.04491016404325779,0.19132916363220664,-0.39724275881954196,-0.21353803227899767,-0.1744081024821159,-0.024365304932452952,0.008553698740619328,0.20679219841557614,-0.03179687010546928,-0.01383495216009269,-0.00628963521168276,-0.1628620610344176,-0.14919811891590476,0.11960182031332547,-0.04183862571087561,0.020513288913269288,0.0002483229517158021,0.01948056280479154,0.043333924312217935,0.0025496965040307865,-0.008246348486441549,-0.01382679890528668,-0.002832283170872687,-0.01002345471113211,0.023371206743477604,-0.007847571099093151
15,0.13241537012360352,0.10290592414419497,0.07341285679720679,0.1364937062231785,0.0015853903824591317,-0.02529429373345761,0.051212259533817917,0.17803422960295168,-0.03186807826001674,-0.05554831396394484,-0.2154097032803663,0.17213050320827916,-0.010222655087727364,0.01871044259879511,0.13050277909086874,-0.37201977539323905,-0.05970408333711785,0.015140060362627633,-0.11097842142393188,-0.004076001901477479,0.19716501543125486,-0.036239781668078,-0.06490938126951978,-0.19600714421299073,0.33455348046908207,0.14816619173427167,0.08953195336095973,-0.23160610498074996,0.0652889491693982,-0.1678087191786233,-0.25340826487614865,0.09819216548393697,0.09105637202520439,0.14884776666593943,0.09176954316688739,0.017482521040606318,0.059278294346796406,0.02898672183422189,0.351771628582775,-0.029468777405887204,0.22316427988588508,0.11574968034524377,0.10289290409251488,-0.043686648709219136,0.1124920420950624,-0.0717868715242788,-0.07157469217894044,0.009776837810208078,0.009216893095207315,0.06257648989023026,0.046420326412058455,-0.01963532667584586,-0.02140066062628937,-0.01545842164451739,0.011917146885738326,-0.016502201453496252,-0.03255644339080574,0.012031434553221495,-0.0026546216220119006,-0.013194070092335995,-0.009588594701149004,-0.004970281185667804,-0.008817579230069962,-0.004729697884796394
16,0.12620037430161113,0.10792606919503833,-0.07087952596428172,-0.28712625088561444,-0.03274929263397479,0.06271941643517148,-0.06900942162599132,-0.12454824400799987,-0.003806834067850471,-0.03059116023271162,-0.19772165126706395,0.1837254511168715,0.054718537570371845,-0.12734616148792524,0.17276832368914163,0.2687762184277193,0.05754009428511514,-0.1262074777517347,-0.22235070310179364,0.03253556884214106,0.19452932464913086,-0.02902332967087201,-0.09982295693267397,-0.035393282210467406,-0.02576610560779967,-0.3021931350379177,-0.09778960924566305,-0.2300591551365342,0.5011496020431607,0.10704401866207358,0.04259801491762485,0.07672795792611019,-0.16366409072739443,0.03347369730183473,0.10885023359160306,0.19566530543798194,0.024350477783077244,0.007078801361937394,-0.06289899980129846,0.021492423035842135,-0.08035469300294232,0.03866124480812104,0.031168549018888537,-0.019540854214658024,0.01703096939227551,0.01508487943003102,0.03095919185316505,0.01003807728636727,0.015844588051871264,-0.021741674150415488,0.059223267392496705,-0.07609883484736721,-0.08194052613108768,0.07798108354745797,-0.033236588735554864,-0.01797297351364602,0.029278731502981686,-0.023403306580327975,0.012872045348306244,0.01382326679051993,0.005016785670182201,0.011113639397366128,0.0016474368882074646,-0.0036982147963427123
17,0.13066659386787702,0.1161369389193684,-0.049876153726095204,-0.21793124532329636,-0.013870713453703292,0.04366797010775221,-0.07725804440846906,-0.0936442900136388,-0.012261566904808877,0.06926484353198478,-0.09151369957270261,0.08756347967239707,-0.011879936259677537,-0.01879754635044327,0.0014399244516892784,-0.019113515489886712,0.03107328281070095,-0.15729780765359355,-0.08752830931436317,0.03691971755767251,0.018317481844311784,0.04586878129732974,-0.09291125925342023,-0.0200022313388004,-0.13324832411440837,0.029482066929642406,0.08104034684347107,0.12390474618781933,0.17403806104484099,-0.10316424877344313,-0.15294916647967063,0.004305691421556679,0.0877154671934472,-0.04762414119994901,-0.1528109001234224,-0.28440351411936343,-0.07616929055606113,-0.023190846278747172,0.0012832744695033815,-0.1017686265238648,0.09485967684212929,-0.08343047209135124,-0.08604801635203832,0.050757244042999215,-0.04626332940308888,-0.02663809140410918,0.02091431062667691,-0.01908368836538347,0.0055043360531663935,0.10099656858535722,-0.2495311514821611,0.34130613141811517,0.4608938547588086,-0.33333827798442095,0.1356743607178194,0.07820352716734046,-0.06844262893847007,0.15281524707374938,-0.05544849958261,-0.01250880330768143,-0.015844790943698023,0.0006016288598050222,-0.024909322401384673,-0.00012119599595294614
18,0.13254306342247257,0.12381600872086576,-0.019140545533467748,-0.11313513462681539,0.008078993828483429,0.012949903009544501,-0.07359153653340071,-0.05765890857636836,-0.01931843787698781,0.17796725267334512,0.06063441288985072,-0.04746347007768404,-0.05778328946839206,0.025050702191096036,-0.05759632637760048,-0.1637676954256897,0.011885119747734735,-0.2116100441980435,-0.05091861493706534,0.01426537310613439,-0.12123595017073341,0.023568217579754372,0.0725852843237128,0.05040344882211714,0.019735602040272554,0.11974551691075624,0.1885518799979143,0.26909624557675743,0.18408794843583517,-0.10022607655619836,-0.14237966988308814,0.09421557168690492,0.29452047965919714,-0.3064036416020572,-0.13146306141560365,0.21152427117585337,-0.04836211072174917,0.002569444994933834,-0.19848968973754683,-0.07991651210235537,0.0975400686638852,0.3017619242096877,0.2600938630584796,-0.01907320611096845,0.0264500860603213,0.09076904934088963,0.14588644942435022,0.02289338623521483,-0.001984505341531939,-0.19575754687398342,0.05153016149986335,-0.07762864984911987,-0.0973123469749192,0.14777279760526146,-0.18058276141545357,-0.01182764814439233,0.00852842519598404,-0.05969662332000735,0.034366991137173744,0.008728532833848772,-0.0029864077225970342,-0.009593994628880644,0.0004655616856314576,-0.012597400043124367
19,0.13189096006224452,0.13243013681403218,0.016406207469406874,0.0036712083081163437,0.02591548872200804,-0.026340798324553872,-0.06085741587797853,-0.06036195870477982,-0.02466724166266785,0.1968742308564088,0.17592252050799603,-0.13321815873063786,-0.06307096574373833,-0.004439192729162544,0.09741432407974104,-0.09089297642044203,-0.006484886085435644,-0.1032933928589265,0.01537644499114782,-0.006299481881927922,-0.10297620721999626,-0.08120433540970692,0.17082330710251253,0.030388618705216246,0.1577878010924405,-0.18350690554843394,0.010393332923288895,0.06647981344286373,0.045352897533035674,0.0019727775119507654,-0.031832259961241956,0.031271574818158246,0.16158276326694224,-0.08291402075892063,0.07807048120382676,0.2118532222393086,0.016802983919478154,0.022293155653917908,-0.0663897803039455,0.009123912381002991,-0.12975142653398863,-0.12447946097920407,-0.08137039684286401,-0.08288510872495064,0.06307414384643403,-0.17902344544440435,-0.3187827703391176,0.03145594909578854,0.0024352893208852908,0.3243041678092844,0.008531435230960033,-0.04182509164509543,-0.15243012428496033,-0.07596277447354534,0.5438131342585075,-0.006007466650774001,0.08868893977705766,0.025843480609340844,-0.04154381091659935,-0.06054690936873569,0.031986583637424654,0.01773454837982427,0.008430601327214404,0.004048959243787807
20,0.1291457261808687,0.13758286967853428,0.04552971071736014,0.09817381004466395,0.03615776381170018,-0.05632693180208331,-0.04314582010616059,-0.11162921032818433,3.997364416953502e-05,0.1197670437063877,0.20419039862784974,-0.1477446239095107,-0.04478167926893492,-0.06507146314279028,0.2650553242681891,0.012894740462590482,-0.013767560535946688,0.01945274609573544,0.10974984838423057,-0.030127723965199235,0.09356589902535048,-0.09265407405497439,0.10460516690057366,-0.013500992457013541,0.1102567816918972,-0.26095216904139396,-0.07225754304068441,0.09518164707080821,-0.021203227836415955,-0.10101986595322732,-0.21350628200855726,-0.0005847746041502157,-0.0003045017928064858,0.0806989363217219,0.05580992631217435,-0.05400741254710715,0.030695776112979745,0.002900213055552915,-0.022018828704913937,-0.05937294195340642,0.0031499181296159185,-0.19286978159059892,-0.2112025754591671,0.026088372478548477,0.10682704862372366,0.037798090265264636,-0.2541843080061686,-0.07935383729391718,0.046360460357407374,-0.3663706937493337,0.1400672899927371,-0.16274811610608886,0.308304410657286,0.01311944726804454,-0.32671506890037794,0.027399244071634903,-0.1195708592433159,-0.014381815501276249,0.03516967835318339,0.040318011974467306,0.0017250575628368486,-0.013052978572919382,-0.007258046801254206,-0.00735880466231717
21,0.12700936478681787,0.1378373778526744,0.0676536330925708,0.16897635676360992,0.04402316142062057,-0.07836975182488316,-0.01457073223361734,-0.11870940724013827,0.018934701118425663,-0.005895411882605137,0.10634788474593211,-0.07279539431603871,0.009577418323578536,-0.08016375141229815,0.2308651564886818,0.17851519968105847,0.01427650194400884,0.0391813595857761,0.27031850991972345,-0.0591230730660542,0.22557455142071728,-0.005692467527137923,-0.0014554948658441272,0.0485011232925802,-0.07137920219907729,0.012968879279234874,-0.0005418520351612166,0.12281610664148584,-0.0032501804844121684,-0.24981762525782092,-0.3330720648510824,-0.00266524322235058,-0.10163617520636456,0.22449098068990914,0.062345736415450735,-0.1394293951919628,0.07740741655202311,0.021253560571700685,-0.1459119797336681,0.16656535942620548,-0.07552101341901814,0.13489503246062526,0.11663236887007337,0.02361335512805969,-0.03319309610250884,0.22206422670049902,0.3366703456526231,0.013675103711590426,-0.049299358893506534,0.23516624362505154,-0.09946469911774045,0.0986138701361247,-0.21379977167071615,0.02117433413730566,0.07543652648146845,-0.01062423635607993,0.06437438178032442,0.006914939196780434,-0.004490487772430184,-0.011324579823356322,-0.008778803349754033,0.01016663006254449,-0.00212779938758767,-0.0009460387809707566
22,0.12660533746674252,0.1295420024495465,0.08140609175880298,0.2061572483374318,0.04252324738405568,-0.09231062750304066,0.026565069813529813,-0.08587852304377731,0.03898691708620939,-0.14720042850015175,-0.08256716992615645,0.056494275047278296,0.045957073967553615,-0.04880099657384451,0.11123769403417845,0.06360329360412341,0.02980544770704091,-0.1581798079329697,0.31697869836745574,-0.025201021746717865,0.19535774743011666,0.07952611510016365,-0.10182156401164963,0.13937836821662508,-0.3395464186556849,0.09583159459351465,0.07070040005952258,0.33423396120064985,0.07508107982525836,0.18319099862334684,0.2600540733706641,0.001146920786255487,0.05181926708773299,0.02461124754012374,0.1645018446113462,0.1475018708316441,-0.009696662487917854,0.006744112164720531,0.2887661715655809,-0.044069158122682826,0.16208121406859188,0.0564201617314275,0.11609768387173525,-0.04282277819935361,-0.0482792097994765,-0.26950660778752,-0.1741571165577962,0.03677634325048605,-0.005939358613614611,-0.05503140752575705,0.010225612825197739,0.0073603234122867345,0.025087216859098455,-0.004677566810796917,0.007986998132704565,-0.03043053180973623,-0.04370064324434261,0.00020757307606551756,-0.0028878035003477437,0.013242413258449715,0.013884901479355602,0.008270162534990824,0.0019045235427626872,0.003955555773922453
23,0.13131918317335578,0.11004810177666134,0.07954678492230724,0.16647875603797593,0.020506259043478685,-0.04958513985213271,0.05359479146365585,0.05769642505947223,0.0066514329219133144,-0.14049584594120187,-0.22917557736082042,0.1720563097619105,-0.009057601596508738,0.02158368661351953,0.07648432295160967,-0.2903775457566489,-0.008895126210070325,-0.1408843067153404,0.11925924592068404,-0.05310478485311995,0.12624220867154767,-0.05839854956598173,0.08763190641150163,0.04555214544624214,0.10582318474244246,-0.024128987469713203,0.0045422598846166715,-0.026819452343251317,0.014137755012993525,0.23698881521331622,0.2801479189624527,0.05868257466980091,0.19176131650889872,-0.06371822227972225,0.0027865592409967166,-0.19945034372031728,0.20370782164554574,0.1924559439927641,-0.4272821239844169,-0.13955574792044217,-0.05273470871719696,-0.16405761812349745,-0.24547858295795805,0.05365013665580984,-0.02226810750300491,0.13016536287688524,0.20203295917834868,-0.008108135981341271,0.004686139795522534,0.01625326901644989,0.0024341420066103306,-0.031818758843985794,-0.019762310768518213,0.01576442563461128,-0.009487508383575066,0.0024133594771234383,0.057133027149425086,-0.012693005040230465,0.004880921409814831,0.009897566903392649,-0.0012362475356912095,-0.0019932319766025747,-0.007446554842980901,0.0027312982786994178
24,0.12420520526109144,0.10595714507806415,-0.06626192129565034,-0.28563523256804907,-0.0035263603722293967,0.05568176554039996,-0.06679061394947187,-0.20365635443599198,-0.04191962096952881,0.14810179317415972,-0.28921938359524213,0.3157808998046795,0.06887583798917636,-0.05078816178862979,-0.012664125857209019,0.17620708132995216,-0.023600810791027493,0.38519305079292854,0.36522706755249734,-0.06317852995522652,-0.05563276900999695,-0.009357524025030192,0.0594806254707146,-0.12718815553313387,0.31584225027704854,-0.04909964938410463,0.01324712768494768,0.11447193815727227,-0.31326780108333085,0.035738351197823925,0.0794164539077768,-0.056927099138910725,0.06429936777504221,-0.0886775715052619,0.013930752020895647,0.1444045189713818,0.019543151352653665,0.03385466371902618,0.024250962386473743,0.004697319473093486,0.006839431794598042,0.06334671131578493,0.09224408764059233,0.03423338470818084,-0.0007656673763180508,0.028239285156490906,0.003006126586690014,-0.018217417495024854,0.017552743891648747,-0.013310622220567052,-0.0410642940041167,0.030456722586169917,0.06200455177632523,-0.02858131223597209,0.009989522398508574,0.011551618301408302,-0.025429873612810253,0.008857356119131209,-0.011506985245077386,-0.005024282708495267,-0.004990289721198998,-0.010917667163982464,-0.002406091294203938,-0.004618688991439496
25,0.12948207311981813,0.11550817079590477,-0.05104437704717632,-0.21937280991526534,7.012052409600951e-05,0.035950171452969144,-0.0755034745213357,-0.16151393648062265,-0.025031859903386154,0.14829463796097467,-0.12645752461249612,0.14333258597094561,-0.013233772726640412,0.02879606088983161,-0.04815889078325808,-0.12963206157303173,-0.004059176936561659,0.043519299591862584,0.0540079070098453,0.014714020368609082,-0.1613561964700166,0.10950051396047641,-0.10254670217547042,0.001535348462059244,-0.24623347463995093,0.09986543447923904,0.0017481601438786853,0.02305622678743642,-0.017630083932319865,-0.08385574127570358,-0.07235913413471513,0.007653368212917497,0.05368508161227542,0.18334236365239232,0.022524766487562867,-0.393311494345641,-0.195699428192793,-0.22760301210265313,0.014004577652407368,-0.06906493816075795,0.05397757520102808,-0.15128625961861908,-0.25104071274737727,-0.15376999248944287,0.048264970425495976,-0.10802032611720047,-0.07327830537795513,0.039597781773022506,-0.06568498682117543,0.05604133141786792,0.16939669477552588,-0.19787454029586748,-0.3478383535059359,0.16934392445514662,-0.06628839634927716,-0.053064859930327155,0.05098123407280898,-0.10451500192418717,0.04851140791374904,-0.0025643478301580203,0.014196431424355171,0.01926315047292563,0.022352525590616845,0.011395578537679474
26,0.13098857910287257,0.1241782824558809,-0.020741641759344474,-0.11182087565208151,0.018681583618754334,0.0022582003003452115,-0.07540799439074407,-0.1763551719903042,-0.018669752903861955,0.2052175418466606,0.026515450485438238,0.013792114373915053,-0.05467334878389864,0.098764838166142,-0.06417917936366425,-0.32557878530412576,-0.0306840723632629,0.08863826629719987,-0.010663490121258917,-0.021216303997132258,-0.14774565203006518,0.06861616043358326,0.0527262785919069,0.23004579464848235,-0.2846375648615199,0.22176765778789878,-0.057070086801274234,-0.268764771440561,-0.016826857923947003,-0.005623281052637156,0.06541043241395424,0.02347931026734275,-0.11157881108651954,0.23399963809794866,0.2365445018978381,0.10172906345336422,0.24328440240656118,0.17839006370527824,-0.021875223342499393,0.22606299006746966,-0.14483280816002553,0.07423134177732923,0.13807201220364407,0.16302359989828089,-0.04091070254108513,0.10406836288358413,-0.05093938014737697,-0.041571567681984944,0.060355997226681876,-0.167652169665489,-0.0012994362497165401,-0.037437997544903595,0.1914708928251326,-0.022999684835230412,0.10371576284887093,0.00918506805188233,0.005008882260924743,0.039295778264781187,-0.023705162702279587,0.010095458865803618,0.008436850939340587,-0.0037309057966826258,-0.011432611363935752,-0.0009662739520443497
27,0.1300644863298199,0.13391273174705884,0.015874023416160763,0.009614589090445082,0.035317779774276116,-0.04468139150324403,-0.06696600136215204,-0.21437796141559765,0.002432569474883946,0.14694868355341806,0.1533225652226046,-0.09966708866830824,-0.07375929129186438,0.05705375460942625,0.05413766448457734,-0.2640783976382089,-0.06248227798246301,0.1564049791489242,-0.1357582699643462,-0.0036219243589623584,0.04882248375108912,-0.04146413395032264,0.10387476431722047,0.11515170942639706,-0.023831053951548664,-0.13898285196041632,-0.080750870050464,-0.07054104111203208,-0.05752191132097817,0.12666720515653937,0.14810057810651323,-0.056233285684584154,-0.2025249464288031,-0.09357705139324742,-0.11146549779356554,0.1930702319006243,-0.012535631954583015,-0.005593021114938583,0.19891137235671552,-0.15769255893958742,0.11804314585747382,-0.08062266320819719,-0.07293024826694398,-0.08732040016814133,-0.019223715584063328,-0.03995823268965931,0.1932794926051996,0.05095919647949567,-0.08874285703642881,0.3060790002621303,-0.14168126258391991,0.28731213172879094,-0.1430144176663825,-0.012578141471243327,-0.390674636875588,-0.018269019623133407,-0.06884042429730437,0.012862721445825585,0.010235166306965426,0.016159221127849836,-0.03692790121062752,-0.011615085099147465,0.0006463448265631166,0.002607002029957506
28,0.12582359553629752,0.13854960321145227,0.0484554519108862,0.11331396021376805,0.050206073877109146,-0.07972153141956266,-0.04158208856065415,-0.30706187672604807,0.05675267154936504,-0.03550071043731251,0.1557147480853837,-0.1187826800486659,-0.03409071313124811,0.04479446311547685,-0.03853348196727638,-0.04542290611275695,-0.07915279578261432,0.23774941282934775,-0.20991149417176164,0.010223233047748137,0.24143110370671855,-0.03806964098757937,-0.07219892430066925,-0.09705499807085416,0.10264117066321551,0.005533849189026996,0.017133641659234713,-0.01160438789938216,0.0007599265210022355,0.11812186883724166,0.19247746537489915,-0.06271906692380308,-0.07883499827349477,-0.08912198135969489,-0.14897044950503005,-0.18551071808644085,-0.20402665175377782,-0.13965003457011327,0.0862475797610523,-0.0313292268783783,0.05758313279631158,0.11995375609212733,0.04005886327133,-0.04498816482610732,-0.05428368273995032,0.009144259368860819,0.24860511827764567,-0.0509076037861306,0.1240006136959785,-0.28988657651958505,0.08408918379306415,-0.19168276940243628,0.05898860533529256,-0.01631325900198787,0.4001527647063672,0.013442814412552281,0.10227217823537635,-0.0022265368690144727,-0.01130496678309998,-0.029506573120633733,0.011940183733418118,-0.0012402507376530047,0.007985140800087276,0.008058109717671874
29,0.12334558530866808,0.1363849926711576,0.06457617298144075,0.1644501890843509,0.05334689170809017,-0.09765757182299968,-0.009436509142954914,-0.3233280889120696,0.0864158590392773,-0.17222423345663973,0.0754612709122881,-0.06649947718495812,0.025446740734944552,0.045748104822561024,-0.23655352467290336,0.1870995418442412,-0.018857649764786218,0.14347034168487918,-0.2111357424051834,0.03173927825864006,0.0356679335990033,0.010390183307657952,-0.1722737269881419,-0.19874817556974428,0.09334369218577315,0.17479290176849413,0.05432994622999843,-0.06829314834108231,0.0428987379088957,0.0311719709046597,0.070074119143633,0.07814042004149423,0.20742253597517588,-0.04167205737879384,0.04906875675446626,-0.14768958164591087,0.0584508510360612,0.05318930643840679,-0.20729285759797722,0.14885262249862613,-0.12355881848167677,0.03370715122558249,0.12616570588804155,0.09728441157504474,0.05617293729492897,-0.014443609697708373,-0.4003754002127756,0.06086484432444412,-0.10058767022718273,0.19542816108271574,-0.03408037938076972,0.10667110453744655,-0.02426613763882747,0.023065569166319855,-0.24813347701980565,0.000295714187218259,-0.06126924810736281,-0.03168609199605393,0.006957383596477254,0.03105470866759385,-0.008432634174420747,0.017518396849406058,-0.0030633158122341797,-0.0027000488687834445
30,0.124100740293362,0.12893011090539597,0.07492586954498393,0.19787289216907694,0.04789541785866443,-0.0942584088034584,0.030759519944841173,-0.2389015174024793,0.08978309863625779,-0.2502713427102945,-0.09330410008614985,0.04235555115469627,0.06113687218490778,0.057605357441877274,-0.34666890363928105,0.21612338432429024,0.06755828670051271,-0.09338620258188604,-0.06444020543770747,0.04682476693937733,-0.328464801768065,0.03905447507943702,0.037316528335978746,-0.022985046365085915,-0.023118027467419658,-0.011518381020960866,-0.007998860088495145,-0.06487629160062133,-0.03741096253309923,-0.14722702433371826,-0.2391961856672112,0.01967183260374375,0.023563110225273673,0.052114467885701066,0.08120551797048,0.30044730767896366,0.13630831543695804,0.09232006195414479,0.11326340928580306,-0.21427569663826257,0.10718247097030334,-0.18438601312203312,-0.24139026438328273,-0.04352819082462081,-0.02594278927930059,-0.008342404263795985,0.2598505822973274,-0.03841918650476281,0.04363329821979545,-0.08628517159936142,0.018017565096166588,-0.04630878645946339,0.0033743893622658477,-0.024388537805628514,0.0782965226276074,-0.007903482282790558,0.0220627413760488,0.027722267113571147,-0.002368448511660917,-0.024139903352197484,0.009461722323479776,-0.017594490956124392,0.0006419686833301491,-0.007404393215834026
31,0.12996125152572605,0.1141753412208703,0.07461784536209884,0.17374344877284398,0.0306636862179199,-0.07212196558030153,0.0517968113349663,-0.046688520593789376,0.0421590436550023,-0.21057664571562634,-0.22562730090618663,0.14167472272030107,0.012019620908395678,0.06376385570444812,-0.14637982349363235,-0.14009021171773892,0.05144224354156297,-0.2346273333121528,0.07248489828457891,-0.01930278020909109,-0.2342069891708878,-0.06409500276887689,0.2659914366602568,0.18589173941286746,0.09387006487160587,-0.29397325807738955,-0.1093133094094762,-0.020144972815232726,-0.021658612069095695,-0.00779705942639719,-0.04192162817268037,-0.09793017471454786,-0.2918559225002812,-0.023306654117206976,-0.1923862546295943,-0.16417058960806108,-0.23017913704140647,-0.19753638517270647,0.01125036914977362,0.21089989748459176,-0.11083257331152378,0.18158491382658257,0.2113749550753344,-0.0019144957433488569,0.04020838800605977,0.03143677989527094,-0.172922712794456,-0.0021869956607557806,-0.0024862248724091957,-0.009003807318877677,-0.021441298630947972,0.0390507223955389,0.03241837185346636,0.01158429046656996,-0.025748633884058292,0.031307032543541224,-0.01117781803893747,-0.007277372409944499,0.0055843442375799884,0.004327509864133092,-0.00320915416515255,-0.0006855772089349385,-0.0007408821060506977,0.003121228314494656
32,0.11429403793260545,-0.12131098722620773,0.26038790700457826,-0.0679299395058993,-0.1950438664435228,0.0003034158373722926,0.15046907018353373,-0.04702867302940365,-0.18314218684892536,-0.04350462497079567,0.0657483198922532,0.11533924314351833,-0.2161640381685929,0.1172118505361646,0.034132004043290025,0.03825309415966384,0.03195728305563405,0.001726443574388028,-0.019154237021466312,-0.0984899670275259,-0.06307299470329353,-0.28206345194447346,-0.11236830010181953,0.025123756386147278,-0.0006983251752334663,0.06271845977110221,-0.08388097035001091,0.042786278913784614,0.02833555989926947,-0.15489475337578623,0.05959624412031017,-0.04871408558150406,-0.04227940513930434,-0.1590244761628999,0.15222101556138942,-0.048466167917933234,0.035207757170638315,-0.005606513679594416,0.01736216546964653,-0.038549304893427505,-0.014351806510914134,-0.10776845879281513,0.11565283261996628,-0.13991150793386967,-0.06171520887410121,0.06536627027204642,0.0030715647362822007,-0.01655439255409391,-0.0167749523168143,0.0053843344163303775,-0.015652263499237713,0.01027663177550027,0.04388674156329678,0.059890234034122365,0.033884143575684644,-0.07112026216542125,-0.043124161422263316,0.1591663028953337,0.37054204969914256,0.08085942530880202,0.06936716719771233,0.1096005939265508,0.29890176743548913,0.41349384755826973
33,0.11415902209683568,-0.13850678774129963,0.23843716152528763,-0.051156784252342095,-0.20513412119739943,-0.007556583410961383,0.07124237831120923,-0.05775562161040345,-0.21860536562924646,-0.038248560784781276,0.08174055144819896,0.06855813092452452,-0.06394165854358183,0.11773546719924012,0.031577443373704876,0.046768609639200834,0.08010850996149564,0.008991878688584212,-0.034150334479688425,-0.20257794797826012,-0.026570060016823903,-0.04792197985292967,-0.1380170790868649,0.13637955028245016,0.051808763635850984,0.018324753342537664,0.0012106908065056543,0.017223157260480126,0.016617637907161642,0.03133637260040051,-0.007039021252590483,-0.09660932895956215,0.05392314524604709,0.08763778626005472,-0.07467422746046173,0.02757218975910175,-0.0584169622779423,0.052888993292389094,0.01087684652149612,0.0051921272838524185,-0.01841616877627464,0.11016639075920759,-0.12949137490242513,0.0523059956689461,-0.025506535336910413,-0.013313033603366596,-0.03238078138226287,0.11806572560557124,0.15289140719298971,0.03991563694925335,0.004303347057794782,0.010992096262096351,-0.003475545754371534,0.08355487234774388,0.0016061189755293154,0.06579175709455931,-0.026113227460130457,0.10577407915170113,0.29508342521343867,-0.18772086883729489,0.016179967580442566,-0.2197661829299232,-0.3085211116621469,-0.5359576390429235
34,0.11803078518097405,-0.15471531489106952,0.1677301746342726,-0.01663375831407273,-0.1919230107126142,-0.019342603343246043,-0.05713717680799427,-0.052269788366180646,-0.1859678894317328,-0.014659674933003441,0.00035200424222584593,-0.07108101477041888,0.11086784476616723,0.14631933949442613,0.042978442420856924,0.01426823665238164,0.22309048638664705,0.023335532713474747,-0.04290805551813274,-0.20875292411562124,0.017501369408349326,0.23880169019788156,-0.06912349757451677,0.13455691206964357,0.09385334524297767,-0.03729374439873476,0.04975075552193027,0.006282853428029395,-0.058022125667025276,0.2114702783821686,-0.15071281095638778,0.10475848518994318,0.03528912760815564,0.13373360321078967,-0.14983649213335365,0.033999925987988705,-0.03544983599187984,0.05540691172528993,0.06814761431811088,-0.11830462845393244,-0.15088498496789624,0.23468359286283122,-0.193247859100569,0.13465434774981908,0.011736793487739441,-0.049951640729662405,-0.011883833743720429,0.16012547889489698,-0.05322846885741497,0.0076975232298636675,-0.04802449207834065,-0.030939788612104953,0.07415312642074237,0.12056558286303613,0.020862049277789507,0.02542221758481768,0.006521547416750373,-0.10032740675319375,-0.276510876473583,0.10758087362295758,-0.17328747760901397,0.27728093190602515,0.16196929611523636,0.24182303249700748
35,0.12256037406900452,-0.15698330059516413,-0.0005018828688316822,0.052301695280680696,-0.16516664349285679,-0.03154525919714082,-0.2026638982912945,-0.01848378165672979,-0.06585589432586296,0.018596431134562587,-0.18910947640610634,-0.22941745720843737,0.15576278836287713,0.19194871444100228,0.07166324318575133,0.002979341618733851,0.1696088492996058,0.019702836176739992,-0.030477204551996782,-0.15267946890149386,0.024093717652697418,0.22392107532279024,0.15001880703058845,-0.14269352531352236,-0.03567818648185508,0.03039936221155288,-0.05643742356066562,0.004502521969576449,-0.03537034998882242,0.133789481084146,-0.08820539024258181,0.2543770741628011,-0.06008546801386341,-0.10762743938242969,0.08449913155749215,-0.05149810357021417,-0.10189978095446249,0.11342994135915282,-0.018332225690144907,0.04732133214412466,0.021781446895925427,-0.09870234031654301,0.12338600607019964,-0.21416857985027354,-0.13359349237229595,0.041117429721315116,-0.03400819877962057,-0.40494469014833856,0.012060783249782575,-0.025728742749486583,0.06054505169348544,0.028989828401748297,-0.1475712748080674,-0.21520797598609087,-0.02626694560393894,0.0792023214568261,-0.024614556546123018,0.08230148331006276,0.09282503138063741,0.1691565883243303,0.16320645179102108,-0.1498059877921054,-0.022601698736209055,-0.056524683432809614
36,0.12402822099555008,-0.14942375146081122,-0.08289457867836295,0.08179030264448946,-0.1276366535407976,-0.03341996031417723,-0.2106546760057146,-0.00418746368136627,-0.018948492548918488,0.013690167312513173,-0.19618855586930392,-0.18879155243772439,0.06947866570194396,0.09244965860300197,0.04341349337420033,0.01605417795458945,-0.06798882043863133,-0.011383461494316608,-0.01161409755768341,-0.07775367569370437,-0.008213980005345574,-0.04911526563995145,0.14041856600088423,-0.1906666655612901,-0.0819667072936029,0.032358322682180224,-0.07587680463370514,0.02334646814327475,0.0419307653033108,-0.12594632201362926,0.08527022234277402,-0.061573039161626125,-0.029409606086368514,-0.060307318532395494,0.07021122467740135,0.013739914986130954,-0.089954627860159,0.05150406070803354,-0.050563111043871345,0.14440386453993304,0.2116086282620776,-0.0733246113334861,-0.03186173150742288,0.008338674548632567,-0.044521780860065634,0.04824311124122937,-0.039702986989765134,0.07461065375071049,0.20289182007335618,0.06674760993912973,-0.14315269591398777,-0.03079497666493239,0.14641088314218026,0.2185315297753895,-0.06076575578406432,-0.3256982648090178,0.16803584424157259,-0.028840703776955842,-0.08933755483763707,-0.5048228885181483,-0.15018719351310456,0.11557440576611265,-0.002185621816245528,0.0647515053440243
37,0.12432056585898954,-0.11832839599195763,-0.15996161207705212,0.09844142178503042,-0.20719076285289764,-0.03879113116870088,-0.11813344868407667,0.009032259080657648,0.11777501603273521,0.05217943129039426,-0.10647490082923441,-0.04189797567804905,-0.006412333702221706,0.19198588853966578,0.05805088007182791,0.0879613383755547,-0.3389582580302174,-0.06145228494833605,-0.003568716181674006,-0.09927819328432474,-0.030520632520573014,-0.16475920153575446,0.03632287947355484,-0.0789010635411527,-0.11784539530270322,-0.08108017105046444,0.2982347712297119,-0.11660378240402097,-0.030462759502010092,0.07142289900179041,-0.04037557786463217,-0.25236768247323227,0.0369218803463781,0.11840111094188575,0.02098067400452945,0.04276813356001474,-0.17209864174509676,0.16201439778405125,-0.03979998232881343,-0.05069173284650895,-0.0052745522081491525,-0.07859242546362266,0.09442435241795438,-0.02151641264231519,0.020358685789821224,0.07919156101508032,0.04252358722200865,0.31069952160230097,-0.2669874519871279,-0.07879898281973768,0.11225376856526278,0.05499102653707756,0.005658355432336781,-0.099319244683666,0.10042442261332862,0.07828421942534916,-0.2236663146344689,-0.22334610204954705,0.07794650083479729,0.12813643736165925,0.01554714945589334,-0.012187873203623651,0.0061710636263641715,-0.01575935131023364
38,0.12542707403081244,-0.0854267116480955,-0.19750317098549278,0.07888788315539033,-0.233691087647714,-0.03258382795561444,0.04804073445776704,0.013200134035835337,0.22365424886583826,0.07022336044877762,0.08970021783842311,0.13571985541036452,0.06048797552249282,0.20126918158070767,0.05113202447377762,0.05757405613175378,-0.15056672817685215,-0.027449475580910376,0.021397056901080378,0.10169326712781843,-0.004620140083097523,-0.028854570949428962,-0.06880907044941376,0.08623670316754646,0.008516739390729043,-0.023453769944366,0.14738462168343644,-0.019772800413023414,-0.028814140270438132,0.16586657541635186,-0.14299339124785027,-0.11925206464897604,0.03065624188059024,-0.06584585318513132,0.0656810567596402,-0.06764933318754063,0.10184983644922616,-0.12421243963987465,0.05048416845956457,-0.1087350210132049,-0.18929091237774848,-0.017849231935746016,0.10027034393448601,0.07598909452450323,0.12631104427424483,-0.14041712140742285,0.05191862580444856,-0.2249728674284974,0.03891222188554223,0.045337183068843545,0.21389126614910894,0.10265377404441796,0.037448160805733315,0.13556510748508027,-0.106208100011915,0.0035990731826280598,0.37246581183126004,0.40716832153943633,-0.0868015137182088,-0.03914712426620673,-0.08842046341602891,0.005874632213981677,-0.03617962560777621,0.010005092678221028
39,0.12536457256799524,-0.06251133487838909,-0.19474811341752513,0.050937572481089224,-0.24636254999145402,-0.025160935676670083,0.1545391485110704,0.011091663949154059,0.2602792816844828,0.06415396863878027,0.20767866688006667,0.21179231634757945,0.1691232304442597,0.21953730979988326,0.05304714666011228,-0.018155495085960136,0.09965665804433912,0.01915662771126119,0.03565833151507546,0.27876041897608356,0.011203203164706294,0.0772915445141619,-0.05067815014479325,0.09980151976682837,0.12261359598135571,0.09029435766322358,-0.19122129612778022,0.05201285727732452,0.06905288908354265,0.13368666243418684,-0.11506424570502974,-0.03664399262029666,-0.06350997958493257,-0.17858226585010148,0.1064145843932513,0.0031724001628957305,0.10479826843541923,-0.11883059559793259,-0.04337601168966168,0.2043151477274674,0.2564038254808538,0.08807472916756472,-0.213891983289419,-0.050054747933020255,-0.14750538675925662,0.14179677360732207,-0.0763178938762332,0.10430784376924292,0.031199617174134303,-0.005810087481214837,-0.15819152567156422,-0.08135528757222743,-0.040296358169516044,-0.08722097731151296,0.05070526122241378,-0.0059101998936776645,-0.17202581497588035,-0.18207570794251768,0.03154425794104475,0.017501225945149575,0.04656264523107091,0.004495200698820211,0.010483627163553912,-0.0005193866821107396
40,0.11681539581333475,-0.12449003672405366,0.2541730832578859,-0.07320426984166752,-0.15053575805047198,0.002196762632286859,0.14891827434459343,-0.0356665332357339,-0.10515777589640224,-0.020503297227899297,0.042774663939957006,0.07726150777278185,-0.21385247222359557,0.04788933878639542,0.010803838933826172,0.025766538974774895,-0.025160912476694493,-0.00978068710817265,0.018643294421473233,0.07420135695428033,-0.02297285885338374,-0.18729124817961215,0.04691605025675949,-0.10291178375219766,-0.08448873749205764,0.028925073355912875,-0.04876433607406719,0.014620984628169797,-0.0037027998933954476,-0.10594233230783655,0.04189950672750403,0.0646605592666668,-0.08177304583100233,-0.1757893296809863,0.14965396108620427,-0.05750208843302074,0.047569646252763616,-0.057837826688225596,0.020852502882267587,-0.022548973343815587,-0.0015172156977331097,-0.11554521745781637,0.12331217594188858,-0.05442977585853097,0.029251803773895163,-0.0012270487660670515,0.03690281087876793,-0.09845993152530907,-0.1720688826249604,-0.04507901092666896,-0.0405294464426386,-0.06676836654744306,-0.017476304663349956,-0.11914060206701488,-0.02505884522026733,-0.045063455805878644,0.0823950380298605,-0.21009876009318723,-0.5321367536058116,0.12654166223920119,-0.108104959648304,0.18719822281945867,-0.10255051164554904,-0.35838233154741417
41,0.11569626974390458,-0.14445883959206796,0.24455640482000626,-0.06626924289648466,-0.11755494351155925,-0.0004632382439987767,0.0757490955728336,-0.04180380104478941,-0.11660561813600598,-0.02212418072462321,0.09300058556329638,0.06687663957127393,-0.032715274632669634,-0.060489600918157235,-0.027068411594959808,0.01608168436079014,-0.11787658592783991,-0.025336029350002648,0.02627368833818628,0.08777899073664736,0.01284333088962644,0.05503735711439277,0.0197772762566209,-0.004997062837295518,-0.011717763669960728,-0.018284361361870866,0.046575074216493706,-0.02426927003510268,0.042044486217467245,0.002077147364725984,0.05152710595024189,-0.12581033523623658,0.07695481826994557,0.15824359693665283,-0.1279650888811794,0.10272408124384418,-0.026567131079851057,-0.049448657629916695,-0.11130177068675955,0.17160800150292135,0.18196455877732942,-0.0431235020924739,-0.019089610903888832,0.12271153122816385,0.11126523615001607,-0.051979083964334996,0.014052743547468969,-0.14372857683624002,0.1173289040644585,-0.01962103420577508,0.13772985913781802,0.09144338497167745,-0.12238012814557553,-0.1765624732433427,-0.05418063332937072,0.08550149720128238,0.00768987424760266,-0.12867689176612593,-0.24452729086945396,-0.12868522355749157,0.09130814250875943,-0.40022809326735576,-0.19735170653578157,0.4579944052254147
42,0.1201933418924414,-0.1706883551232327,0.13321181378709224,-0.02189900984953428,-0.014154686794977714,-0.0056140181352595684,-0.1076208910259034,-0.0182003983984253,-0.06582250262131946,-0.009562151711792007,0.04543189389334072,-0.038942110050907336,0.23244976029724643,-0.12700960980747866,-0.05274340923570265,-0.058927792289183094,0.05774051162292649,0.00867873801264701,0.02149256870679683,0.16777384509799753,0.03762288612628667,0.14902583928870844,-0.06866092604734694,0.14994585911452507,0.07438348970573591,-0.13778980714211764,0.2050716927915493,-0.06811349762461116,-0.03908467093513315,-0.05716170266778624,0.061879361996128285,-0.030743715099163668,0.01628342250017046,0.041829685487842785,-0.05607676853565356,-0.023856511407964992,0.16354770573990793,-0.13498780064151342,-0.007975251368060876,-0.02573367220271007,-0.0005787724467326422,-0.07778635820022367,0.11380261645423644,-0.045045818941525165,0.05845461924828128,0.045204056037117066,0.009455069693586726,0.15370763786049974,-0.19220475706262644,-0.02800213329967085,-0.022343965200683213,-0.07247405609576245,0.07934699519928409,-0.13903388218006332,-0.037114010417401574,-0.34985307195929166,0.13688238484460455,0.021700054920891526,-0.010358975564441153,-0.09126266715474268,0.33105743948442207,-0.1935889903158419,0.4082560947441952,-0.2051796128917826
43,0.12207810616341491,-0.17110028619015158,0.008311323330385267,0.03593844840946663,-0.02863491900053341,-0.019699585521763298,-0.22394833005550327,-0.00804704674417508,-0.07218993960187611,-0.013211220283898678,-0.0851983064365965,-0.13497942547074906,0.1816082457216464,-0.08179589181411892,-0.020385782247351398,-0.07257617228481257,0.16561395240485263,0.02808758720565488,0.02820053260006616,0.18115789950499445,0.017732620246720062,0.027090561185621094,-0.011076126586294477,0.029450120477718486,0.04549939459217995,0.01156251494589098,-0.07372984835548697,0.03598319577991107,0.02338446313208819,-0.16538832932552977,0.1130359646339882,0.007117158856593295,-0.03588955537348801,-0.12326298872692378,0.06331644344861895,-0.06355659025128606,0.31405937140651263,-0.28037355603895603,0.0354566493091395,-0.08081235962397382,-0.13692331705209604,-0.10238031803656922,0.11970597210358333,0.05084139793949456,0.12796062927040874,-0.055106013541953325,0.08776028639004035,0.1648357313046468,-0.02944993737022837,-0.08093478415881508,0.23086383324772836,0.13681582073737528,-0.0744664254226354,-0.08062676937958073,0.061652783660036084,0.29330953490838496,-0.20065585405286201,-0.06792629016031829,0.15496521451898648,-0.18644625623095176,-0.2216523912330841,0.16468336773274267,-0.19858210343521868,0.05144406472051703
44,0.12398333204065057,-0.15515922337614957,-0.09345619274688655,0.07642386611035343,-0.04190757264749965,-0.026231259152673502,-0.21572145657522396,-0.00011999996084223371,-0.051680021693678545,-0.014274592766588675,-0.13843427382471868,-0.13106255140661513,-0.014783514215645395,-0.07021882935733668,-0.012239681704082265,-0.027690721751135322,0.0011328002782268077,0.0212507344948737,0.022000521822848902,0.09178949277856453,-0.014825478623789561,-0.13300492157983954,0.031254042354823014,-0.0755882939510629,0.0008260841607637404,0.10909447048965451,-0.2477470007346132,0.07631464507178548,0.09739759848881396,-0.14244964443794925,0.08662704303367488,-0.15895663908794413,0.041814285045816295,-0.000752852801335191,-0.031828486098188474,0.046079735693666524,0.043153531205810766,-0.11115174018501997,0.006565648937158108,0.041995196002145074,0.06910871271896198,0.06762268965313487,-0.1409133849426521,0.20292275330423498,0.11604277927800286,-0.06975089247319033,0.03558874833137686,0.04589630014474126,0.12195634198663047,0.10189818955937377,-0.01630173692426659,0.06333449783623221,0.09306434369728069,0.3057180598667768,0.0741558852591252,0.024191453843355845,0.05072140903731459,0.036426592726116785,-0.06912321045372093,0.5860250238451296,0.1369357644164209,-0.20590320417503644,0.07291933202141725,-0.08242360362094166
45,0.12468213219227778,-0.12799722368427788,-0.17298856717355518,0.1020531603611173,-0.11099474816368299,-0.03366134054731863,-0.11272805215312935,0.0002899691159435991,0.023598028665072414,0.007395923126196155,-0.09870469918325704,-0.04812420695523764,-0.20056713071670407,-0.15760922899685315,-0.04039574936454793,0.047275830912349805,-0.2312446906456068,-0.011795668082978881,-0.0024858586297815516,-0.09367205744590767,-0.051353588969387756,-0.1245447062210367,-0.09702436569628395,0.052663817461598345,-0.013354806210776796,-0.05597981532834671,0.02863555767843,0.01754711861295133,-0.0242057129729593,-0.15957695886275916,0.16971854222983493,0.20891562085237458,-0.0033201784130929,0.08660975210465224,-0.16599671642194525,0.05452618274398371,0.17352864341181257,-0.10225116136550995,0.021685746995672883,0.05370312839412955,0.05618535595258878,0.2736634168106337,-0.22793853781374143,-0.0646537073429613,-0.1535867908709942,0.07335383959255481,-0.11693039125471433,0.024827424588804967,-0.10487279185071496,-0.05337740183825851,-0.13840099240996132,-0.23712278627147798,-0.1563428448098832,-0.2985761143134232,-0.10458657521034156,0.18786519512379088,0.09428331713529112,0.30809866064659663,-0.04941907046304014,-0.02768470641531119,0.008436804898421718,0.08698595894737875,5.855061276857296e-05,0.03431255380916005
46,0.12690425304950648,-0.09462756242209994,-0.20720011316772077,0.0854944822280099,-0.16937157323450788,-0.02931892998893677,0.05251155276714273,-0.004613825751421166,0.1090984487370324,0.03650099536227879,0.045814470450791414,0.07664835860275267,-0.1003052676200954,-0.09044463463058522,-0.03016210016265523,0.03129721618100477,-0.10378989101927026,-0.0260971508364367,-0.015865810030093314,-0.08175384503452848,-0.002588168712440954,0.014227089140282062,-0.056555067272167296,0.08027955283353326,-0.006365925953480955,-0.07611786530495555,0.11459384124573867,-0.017710406814070337,-0.055260792264256724,-0.12624865110697903,0.08581219887069305,0.2474433583680451,0.004131803057414864,0.07223737234457017,-0.11248819810056027,-0.05869731711889768,0.09552810299322623,-0.052060045066869405,0.06128139745434336,-0.1898736046972071,-0.24438574731065088,-0.02514542770864823,0.11677647243627669,0.05595670571801119,0.08146319185508115,-0.15155213601030734,0.05169012192311523,-0.2935376965639369,0.32775390258397297,0.0765071269727568,-0.26414046148377857,-0.05046176743626457,0.014384593074828894,0.09841800190890472,0.022624700311059287,-0.12315235174359486,-0.25160823450359976,-0.3957655708596427,0.08696674817334936,-0.03059784099906792,0.06622818145939774,-0.04953209758224263,0.030051890434012317,-0.006627928170137926
47,0.1270944930050493,-0.05702851443462433,-0.21084049655815693,0.041374582553212545,-0.19269574267304165,-0.017605643803275683,0.21922135171426274,-0.025455862015740644,0.14524260711951809,0.0383246891156908,0.19319899240131366,0.16807476833124524,0.1243858366329982,-0.09152891784389189,-0.02846624981647241,-0.06362954404990236,0.2750466290456805,0.001992955160435247,-0.011591600772626179,-0.014057847131208112,0.060945168117052785,0.06383798012379557,0.11871458125785479,-0.09002784605818509,0.016068808105687452,0.03241264141127738,-0.22322244686888626,0.04816713434678317,0.008222556177267597,-0.3310262707417949,0.2680348700982401,0.15540254429191808,0.04674480833542766,0.21329418300266229,-0.17336074098405557,0.06759771329456332,-0.270914235907362,0.29048971130329465,-0.017818864546623847,-0.05250297215850898,-0.040091957333448364,-0.10061452904911411,0.10671019040264981,-0.03388179116730376,0.05848441613024408,-0.021135436446649447,0.025893710584564626,0.1301596004607679,-0.16190156858615368,-0.04694231619207462,0.1456681481388459,0.05673067079302974,0.027351964628773692,0.004037314909136197,0.004835686739615985,0.02864544305975454,0.08440305198986968,0.12003679692672513,-0.032717361659652174,-0.006485654482559562,-0.012219475506167074,0.012056159850109011,-0.004508427787816056,-0.00643389068987411
48,0.11961795334313659,-0.12675996418511173,0.2252156153643342,-0.0900472078715599,-0.004398788919129856,0.012378018227687977,0.1651176197253362,-0.0036735279884734105,0.18465285502665074,0.0642047289427771,-0.08299800847323258,-0.09007188698448408,-0.18740450795249677,-0.07903765743390909,-0.010725192641947892,0.020692536074946713,-0.09037871033071913,0.0025518181557194564,0.07691923340730397,0.33851424066112007,0.053898886630873714,0.0990285900644656,0.29395985254526846,-0.28885722615578824,-0.15339679281957094,0.002264013812360549,-0.008993522037750501,-0.01991987877703416,-0.061725435398719365,0.13639823523136013,-0.0978759013286129,0.28442614371205527,-0.09135735032711129,-0.07965073067727581,0.029654057667315076,-0.06989538566809625,0.0053027565608649505,0.05011474081952807,0.1138173281681962,-0.13104570554216038,-0.21404551216895346,0.2016004886757875,-0.10706185862789841,0.051557722481371165,-0.05301539659753696,-0.009785397751675806,-0.0058527829408715065,0.23252840628045582,-0.10069218355839998,0.011024110520662544,-0.047037831983673624,-0.016250367374419063,0.0880894533025815,0.12940181554539093,0.030065082074096527,-0.015038773965712876,0.025795210788293776,0.04708274356396128,0.15292911453419064,-0.07116148496083455,0.0571375466169917,-0.2043579575197206,-0.09054025144668842,0.08012257758410873
49,0.11721135399277902,-0.15050363236856135,0.2252763945293969,-0.07574403961842648,0.005049621940659045,0.008505918078213373,0.07610800228813125,-0.015609950479560401,0.05085232941470038,0.017264871847500057,0.07052425868296353,0.03627037757615542,0.05708188689410824,-0.18242572874533505,-0.06954346257345707,-0.014734957921693666,-0.30343546050241993,-0.05561512692561274,0.03826238704174583,0.15273751055095763,0.041377722297481066,0.21254750890461113,0.1599973390401789,-0.10898700386618536,-0.030779323988288657,-0.0017181817721308446,0.0012598999673782488,-0.030491641741822062,0.026863211131145676,0.08233977813767546,-0.00526805474276143,-0.07567888666327996,0.05397311711978074,0.15402914132628912,-0.12622790893127786,0.08681543752251789,-0.0634754025913273,0.024594891516694584,-0.10077099957755138,0.13914466041651286,0.16721904369898774,-0.06036103473222483,0.0021091293214922924,0.040708815599737075,0.008077208174075368,-0.02243798410946847,0.0015408633017758855,-0.188589734456603,0.1974972858306572,0.03166803283065342,0.053041508148179733,0.0631372090879561,-0.06288665134145392,0.041581811443763446,0.014919082571569427,0.17245150736184992,-0.133787525487935,0.1068397743073649,0.15911742916495641,0.04260555585710782,-0.1330092577407675,0.4076142541908626,0.32382417099192773,-0.22247584679532978
50,0.11995188543698032,-0.1704503795783623,0.12446125654969971,-0.04058784116705167,0.10681467806425408,0.009036988759955894,-0.0724170310295548,0.0038036432467987006,0.03641936369547024,0.0002839962584576202,0.09919533744122272,0.033282690726521603,0.2555122838725654,-0.1735871298976012,-0.0737323604615411,-0.062249917388414615,-0.08450654945986776,-0.02121404709023093,0.003101783044562894,0.06699565426617671,0.009688374700762444,0.05354605877059268,-0.07024722115233484,0.11438468834404562,0.05431958677334185,-0.10482701428962868,0.16155206056787516,-0.06282759193741982,-0.04362993628643262,-0.049171130275133174,0.023573459265767926,-0.026241130971616566,0.012746035607020985,0.008810606838586144,0.03404821953828302,-0.003833961819681455,-0.07317980880324951,0.06479898348649449,-0.0066122927425151246,0.012177199072873596,0.0656198224004308,-0.07507462805747638,0.046512003657967455,-0.1289565784684485,-0.07239973338337141,0.0659739084481421,-0.033638316041323536,-0.07516848519796321,-0.11300846560449554,0.017765204868597367,-0.232321603103189,-0.1324271318397823,0.07231204586192201,0.1266116362756284,0.030091119795525423,-0.2178012674260517,0.083738082791262,0.06859307543197035,0.14395338323103524,0.29460916384580976,-0.05418292166946517,0.19769690857701555,-0.5721612148684434,0.1547651707860403
51,0.11906111455325294,-0.1724058544523689,0.00927564336649131,0.0010280789658112146,0.2052779358002299,0.008901916309790668,-0.17758173752822864,0.028877194615234806,-0.008255941184212837,-0.04750543082489698,0.12438355470100411,0.12403045521520134,0.17814210629608082,-0.10800395206087765,-0.04471975807013484,-0.07399833500072775,0.09662625398938998,0.02310746521146488,0.036048223230657095,0.19063895467053965,-0.018319471268351952,-0.3239713369542104,-0.1123354301476143,0.06790037286291137,-0.061444744531104475,-0.07513333951229782,0.2100171774073744,-0.046667706767672235,-0.06736149439314076,-0.06973128771253218,-0.014652214548956627,0.07241248001708973,-0.03689267693527966,-0.10505707861337092,0.18648587050629364,-0.07604656919124014,-0.2194080840539784,0.27349676454713445,0.04863212507446767,-0.05192992420820117,-0.09553851194282167,0.14789575815569492,-0.10909191470209428,-0.11439306068578593,-0.2237904063971051,0.08708158835828717,-0.07089657578942929,0.018129713155128582,0.32836151911220635,0.040200395203255246,0.12619316952193163,0.10032281591520592,-0.059048636772423224,-0.003251610371622124,-0.05634516472417306,0.16100907594204977,-0.0036968075413707085,-0.04109439935148608,-0.1533006007945765,-0.012687331982244499,-0.12934984079637296,-0.12585849003679178,0.1752443441735783,-0.011561670889580489
52,0.12335431598168277,-0.1565366879654802,-0.09543167593319717,0.053703045211051514,0.12177665907143179,-0.006787755157173695,-0.17504296702021643,0.01603775931925927,-0.08372710368100304,-0.056069975932092606,0.005865884313474728,0.03286552148666786,-0.1222257038688537,-0.07364120369929493,-0.023717054102893837,-0.045576863165362816,0.14197423659405198,0.0498263300746395,0.04516722788469449,0.21982224880116275,0.008718168587737567,-0.13778998069052167,-0.01609329662735952,0.00856971072432472,0.026200600025013503,0.16033838909691248,-0.21413551153312657,0.016189564252084246,0.08544256334913683,0.20096568531317427,-0.166656050144741,-0.29271916554373006,0.05444409747978067,0.06842801171307422,0.01932724390734452,0.01632023434609023,-0.20320468680376866,0.18438571587676617,-0.014969381396303244,-0.13369636879701444,-0.1546289380193664,0.0159031049343987,0.0710928479367538,0.10923536133919597,0.15179386645243143,-0.14633542283945206,0.06287979403725526,-0.14968558110870128,-0.1549647266969568,-0.02140163595998952,-0.27131787300730326,-0.23945039485424213,-0.07821840773314245,-0.11485022839321495,-0.07590065604266016,0.08685499477298109,-0.0732918475399904,0.045360511072019036,0.00996361131055766,-0.22226284800914425,0.24794182403197207,0.14549517742139825,-0.01785146019826075,0.024994480038368426
53,0.12401888224422075,-0.1316386253843336,-0.17996717397608347,0.08445973374250687,0.04752531716910164,-0.0146596280556942,-0.0766452312443469,0.0026196854440053157,-0.09020969413468623,-0.044553947549675676,-0.022560277736261337,0.01749264580356009,-0.357628130907295,-0.2524839821552124,-0.08123691511226327,0.010191430152281872,-0.02794612183011778,0.029928792506249493,0.011809318938006009,0.061557849263363155,-0.014771587067136138,0.05597521202286233,-0.12721517218553635,0.15129673642428754,0.10930979443663222,0.050080058931312225,-0.1613048514415361,0.03986905700941104,0.01112425714905221,0.17706132525742113,-0.1108684531140345,0.04504431309226965,0.03049279631734436,0.061407506627136565,-0.07098421666666803,0.03625790291481776,0.016347266820746845,0.03008499236552982,0.003965802216276909,0.031685190357643216,0.04317768789146792,0.056184067536796695,-0.05989582725534798,-0.18390509926808396,-0.16091598747322172,0.13742988048123547,-0.06575448299145473,-0.19387344871106493,-0.25073389354160475,-0.025948737054053768,0.3306929907024393,0.32469781828618693,0.12279144935213782,0.10697607018806335,0.11365855296558278,-0.2371142526856584,0.03493527286497872,-0.18884725481201495,0.05376671839746303,-0.07503049606660962,-0.10532159951213409,0.0009294647204692572,-0.02128754336692191,-0.03043682910401792
54,0.12722196049210846,-0.09520174604413839,-0.2122830331616187,0.06614715303746733,-0.0036584714592546117,-0.009077321929752526,0.1231224326243052,-0.023855301444367427,-0.09474398905840584,-0.018264925424181015,-0.0010269725905999725,-0.02040569193560027,-0.26646839601819244,-0.3169818973706699,-0.1026969021895858,-0.024888039707830174,0.014667935621428724,0.01093436678289602,-0.02849890288248494,-0.16921325419290734,0.008303130472907446,0.24278252407859072,-0.07179524211291557,0.12266892380794464,0.06746782410739852,-0.0478866631054137,0.08252709297150188,-0.02389744316197083,-0.07510071814649423,0.14203403914078344,-0.1562633247394722,0.11996601669137398,-0.11032435810329629,-0.22988540982985622,0.2411474055875784,-0.07052610863607275,-0.13663978616689793,0.03668172478426503,-0.03383311888293415,0.14543002925650733,0.14582987955996782,-0.2781306893238442,0.13301676862589212,0.11727317989803653,0.12204594248036706,-0.03537525046465133,0.08843597165704012,0.3458150535688451,0.19005170001044666,0.004707749417638407,-0.030700338945856956,-0.07968081290725477,-0.02536379471409918,0.001725377107719403,-0.024648418995959216,0.12096448876533726,0.018637990200721363,0.12678164738634612,-0.06564067181994548,0.05568541139008433,0.032357881381216064,-0.02693943128629736,-0.0036292397184245276,0.015794980957018756
55,0.12776044689276048,-0.0401893841338305,-0.20878116732957874,-0.0023698234279243297,-0.03753609834964078,0.012078001300694651,0.35490597090197873,-0.0629885671479117,-0.11732662786503777,0.0014738548435016211,0.04633591555145453,-0.06606673805209012,0.1464646859572815,-0.3205936084144526,-0.08449656712553047,-0.13051191241596058,0.26949789144002,0.016372030536709586,-0.04388391954638201,-0.2660684467408828,0.015731937427055503,-0.1027595104574581,0.19183651299937657,-0.30017856180578717,-0.18931477162277688,-0.02356740300853541,0.21531752455920564,-0.053572490964648375,0.016779161749024635,0.0885922629513191,-0.047303156691042764,-0.3473142046743182,0.015423638675976264,-0.04369390127485297,0.07843925755256134,-0.006823691068638393,0.16568998316730552,-0.1444670848881467,0.01924246295600858,-0.020905258281085082,-0.01947521657396495,0.17669435805243267,-0.11014729057123998,-0.004295719451835128,-0.07627398207278144,0.04059109022130883,-0.04840665221947174,-0.13764228039708107,-0.05826847104375979,0.01390740155704523,-0.004316611280249849,0.01030774407385876,-0.016801669728543966,-0.025430784541819323,-0.0004744301187250416,-0.028114343257313643,-0.01071477840554122,-0.033183832481479034,0.035767647557819186,-0.0005444073755488214,-0.018111486194746118,0.004427420247640263,0.008829398376342702,0.003430703481656831
56,0.12235822248614715,-0.1055817418679256,0.11531911508851461,-0.08693464267700923,0.13815980587878646,0.024019785874952022,0.18650623314520406,0.04411307163922337,0.4564365640726801,0.12909130580228634,-0.2896026335168793,-0.2866356529703445,-0.24155156408331244,0.0968380564313512,0.06371447382164709,0.03257122090732871,0.4189798225693799,0.10877376553612779,-0.0167931505638762,0.06692353322266481,0.0028968637280193965,-0.11700662374842322,-0.16224558284270646,0.16184590340282767,0.03183031121914946,-0.07731810278672327,0.23783048218931202,-0.04708899526337892,-0.03963932829218261,-0.04427381370793952,0.07153447277679068,-0.05327832206261148,0.041549926343090654,0.09413412397586207,-0.06264432337189942,0.06187954309412687,-0.03523394229442095,-0.008521544466378261,-0.06516932485460826,0.11605460245518776,0.15779101524315783,-0.06396237316938767,-0.007549651545718183,0.03715317894508463,0.05348927015718269,-0.009874648545967535,0.0007254503663301354,-0.11488520041042591,-0.016712550718208943,0.00945727064301978,-0.014147765079037214,0.005322031367156865,-0.0067368491629236915,0.06309836815136813,0.015767852913337876,0.06189522239422626,-0.027778250626509987,0.009945300911897385,0.0007745147393529595,-0.00884385945774982,-0.029252838017181704,0.042422151916873714,0.022471880697769953,-0.019353558888741268
57,0.12046432032757459,-0.1386584392976065,0.13337512979350127,-0.08289804507547101,0.19439401301929277,0.026529418006794144,0.10477699502141503,0.03595445041370892,0.3446374661251089,0.08682834926524016,-0.08636590891194279,-0.07871243886053667,0.05359630835637292,-0.05513406782432875,0.0010601826809087057,0.0038320790314368843,-0.14887309242374155,-0.03180127214038405,-0.04864669227594678,-0.293939519670513,-0.02763381933961108,0.07066517642490608,-0.04346067155696557,0.04303454199279881,0.08576762524214072,0.1337025211745305,-0.31855477974546437,0.08669414119687288,0.08468056803108007,-0.01033719313979111,-0.048474408022213714,-0.20603493028915795,0.0499795026409208,-0.014014364147618197,0.02418067144868702,-0.03045213177717211,0.028552623548463045,0.008822024352926994,0.04643708074657618,-0.16339062480010386,-0.21158963178402235,0.057748405785701534,0.03718229350745702,-0.07534148013928443,-0.0663500233376588,0.03464315881002153,-0.019770728330752052,0.18244677777700058,0.28747493092754234,-0.0068713364356724205,0.1584864131047667,0.039555416868559734,-0.076145095301729,-0.3241440850097824,-0.09042070321216354,-0.22901989801291558,0.05093486664341562,-0.05268256743692913,-0.061361689170961964,0.06743328977130907,0.08035542919469016,0.06897675041207621,-0.05161236979823177,0.019368255313848462
58,0.11957121307738056,-0.15809179556453362,0.10320214679278894,-0.06064477033166812,0.22353749865663852,0.025121555498797223,0.005299297629734288,0.03188924352205534,0.2082729246048885,0.04033413862298073,0.06677914074717224,0.057884803754962535,0.2043910821276623,-0.05859289290831793,-0.009150632917040852,-0.007656718615917907,-0.1946246651151784,-0.04371777815432152,-0.06394519415897564,-0.36002518038746495,-0.03883228497352886,0.016372628535068517,-0.0649478279551298,0.05270280553497297,0.054300246978373885,0.0555786929751249,-0.16157747630243063,0.05160820601850283,0.04475489789963189,-0.005948911287499064,-0.0123411567542875,0.035758253413383775,-0.052851170944258216,-0.09046325948929937,0.08364775782967873,-0.04002272958728395,0.044037764472242155,-0.01910420417729536,0.01957377617194231,-0.009061963326251615,0.05536397796759801,-0.05105429713452944,0.013740568563725297,-0.03371351630132985,0.030212799483720784,-0.02595825860612891,0.00939916587504841,-0.13362772405885137,-0.36679248604767434,-0.011621305356598458,-0.17054892448988412,-0.06195115984955941,0.07747746057822358,0.2798955144565782,0.08226232269883253,0.31610289891386645,-0.046222560372051885,-0.024206107869317164,-0.08310495716895289,-0.16724451312020633,-0.13363682204305785,-0.2990600056159151,0.15334566101466646,-0.010535551298190109
59,0.11780388861200704,-0.15759468264734516,-0.03156838371582952,-0.011533398872584767,0.32622419494154387,0.02460710667621987,-0.09535867585705901,0.043945134628232456,0.03769260342434134,-0.03244093650187655,0.1693746072603795,0.22543983860401695,0.035658529149688596,0.16149760091242693,0.06088096897587691,0.03007368401674309,0.041064624451919926,-0.01564559390122841,-0.03016211778873391,-0.2196572415091195,-0.03609647255681321,-0.17908122289830455,0.04873651069621615,-0.13617641575611508,-0.11544484185313865,-0.008020513901459853,0.07919100333967517,0.020451408566431566,-0.06827403880100516,0.05436147173854337,-0.008806824216638257,0.30277799007660805,-0.08562372287126897,-0.05976383130082745,-0.06443959152709883,0.0400218076174963,0.027906811464872117,-0.10784109620785973,0.0005286577854787325,0.1631609449592872,0.11249350323577108,0.03304669824535228,-0.12659600062165177,0.25743476094699486,0.1343970707172174,-0.06445778991566084,0.072307039399234,0.012519891718767048,-0.04410587339592199,-0.013728573679915868,0.1873562189917896,0.16054838166597873,0.0043570842890046785,-0.0008468803427654353,0.031635173714984116,-0.09352948899559348,-0.01820476857153497,-0.017797725701902314,0.04235977553438473,-0.048960480620607344,0.4128091162359152,0.25990183388920973,-0.09158946853942405,-0.004378465001888182
60,0.12087650532435179,-0.14949749946244334,-0.08708503002536189,0.017187158793887203,0.28257324154531616,0.017146396191467968,-0.09396225287343077,0.03314055356842365,-0.05117140628452635,-0.057941649325714426,0.11746454209250062,0.17555841102230588,-0.1217224464855797,0.18159911205231982,0.06115509006373865,0.042625922524528334,0.12908994382211134,0.009987777985494566,-0.0053129686398660425,-0.010700411098259796,0.0014551324200056833,-0.015494799016911927,0.10078096372472947,-0.12671871839225254,-0.07273723662761533,0.03419794444441377,0.003943433923775948,0.012040899756925218,-0.0007603852526313834,0.10315640236531459,-0.03647137486903297,0.04430913682076421,0.01050596410025502,0.10074979198826177,-0.13040526726641727,0.05963856555251029,0.05199465165108988,-0.09489769645507071,-0.057100943515625974,0.04563068594009756,0.017151664791374643,-0.07917130961129755,0.08586575282269894,0.0460948396113188,0.09607845981922816,-0.07546259426929092,0.01678129219303945,0.06025213218158968,0.020640945151633595,-0.01988795534481661,-0.09759032130651377,-0.16404652866388075,-0.04239227267607536,-0.24884421715895827,-0.00823436252452761,-0.2255694571278216,0.05338530966235015,0.02485382960790515,0.1737798445925362,0.15732146258765387,-0.5829102843447526,-0.2345311140426837,0.09560364643734054,-0.013434647158609779
61,0.1219978851396286,-0.12358189194000947,-0.13774390605562103,0.01784584076805506,0.3003136268404817,0.02344799300069921,0.02403850216745641,0.020255528065250904,-0.13586444887096924,-0.05992599109442052,0.07863320954798203,0.11489326923124576,-0.22191474938765765,0.28682811670273417,0.08174615221208607,0.0988332665063665,0.048193275904347535,-0.01531019902820916,-0.015153099149759933,0.04140291686386342,0.05252776561123565,0.29653978338580966,0.13330095593680968,-0.0783281920960443,0.006980983301032185,-0.06096369183660434,0.07243400998641536,-0.04867783442192988,0.029879511513839083,-0.09409688201733558,0.09585878881981658,-0.19177670750710463,0.0867089694213532,0.10750140027512717,-0.07578045492938221,-0.017075240729190422,0.1796052887568459,-0.07550859554763495,0.02188799601951437,-0.12162386348135457,-0.02664881476749677,-0.05862535387297203,0.13217306037283635,-0.31501864026193455,-0.20008148039098028,0.15110580327332906,-0.09420863503429414,0.09791033590612558,0.13200217347709686,0.028010636650548912,-0.059665129601223325,-0.008218342699067585,0.06207343040344185,0.21717196023748842,-0.014081966447832883,0.2305554923485319,-0.01598470148489048,0.04444841442953999,-0.16869472453497117,-0.017732453392554325,0.20213605335963036,0.03312139225634201,-0.055831573500535955,0.02058384336027392
62,0.12539267810644492,-0.06155974707237093,-0.1772832521710273,-0.021251786362396802,0.23180179596561679,0.03577667835247613,0.3009930712506589,-0.03441293200150221,-0.2577927838194891,-0.016616417030589477,-0.08600708049857189,-0.15945945835541536,0.030848877306870942,0.24042908672099353,0.05573878025168174,0.0701062710866654,-0.19210136246482207,-0.04847368971113005,0.004090675455676642,0.11526824869481954,0.03797312110998071,0.2501343818146252,-0.018989074867289346,0.13699067469631643,0.10916582216494644,-0.07644997823145645,0.02530811630667505,-0.022436993744228695,0.020498618971651533,-0.29374050725223905,0.16354993328759895,-0.06615841560651708,-0.023950866308992513,-0.1655836855572391,0.23893603624018006,-0.04817726211083878,-0.1607593335462012,0.12065648551388208,0.02656866672860618,-0.004374952557245765,-0.042347291518264774,0.1931190535280781,-0.20956921149775543,0.22620171617330487,0.09080582928718625,-0.0750604255543749,0.04009558353618925,-0.15701050129623875,-0.13339930675935657,-0.01678196649393532,0.03847119090931182,0.043422170588589715,-0.05492915904195633,-0.11282585049250644,-0.009702166276221613,-0.08883479930312409,-0.011248610801072978,-0.03422250650605804,0.0913986707583402,0.0010834911621805882,-0.06447629931110017,0.00478437891327632,0.032511525432644656,-0.011811486369551233
63,0.12532939312102645,-0.023866529987194945,-0.17514220370191785,-0.059906120128318384,0.13943423307219174,0.03841628033409761,0.411304564970485,-0.07897973634416784,-0.2761415774466819,0.013561442681973523,-0.14570313401692433,-0.2630184231796926,0.2994261055171258,0.08604539926203898,0.02659223571160607,-0.00746925591845196,-0.16396823160456292,0.01023616093378977,0.05090432567918074,0.14117402033100276,-0.04401385489725702,-0.3301810851325904,-0.1335534744599904,0.06084512311296503,-0.020318754123639086,0.0858461197131313,-0.11949012747028759,0.051279905726493824,-0.013824399608859613,0.20086480536469659,-0.1265353714970555,0.23554236540945125,0.006773145898997163,0.1447491074569902,-0.24077686097667622,0.04935927326811074,0.0460910160933537,-0.02976591002340771,-0.027989963545762594,0.009502831197931544,0.010985524012047762,-0.15332915736312033,0.14374213404021866,-0.12211407702117849,-0.017431317067399723,0.015553714118231234,-0.0033521500779643003,0.09688304372826097,0.07484239750373173,-0.0006075662991923136,-0.014381683744585955,-0.024223200018011953,0.03525354513643242,0.04714450950036958,0.008381123702121351,0.039025364129587625,0.010111932511259442,0.01525243527959376,-0.04815731156991651,-0.007199300717801428,0.02839653354948099,-0.0007383111869646922,-0.01812534282642895,0.001533334589569224
